    Energy     <xes>     
   6709.00 -1.8890613E-04
   6709.50 -1.9097171E-04
   6710.00 -1.9377218E-04
   6710.50 -1.9675612E-04
   6711.00 -1.9980886E-04
   6711.50 -2.0292508E-04
   6712.00 -2.0610630E-04
   6712.50 -2.0935418E-04
   6713.00 -2.1267043E-04
   6713.50 -2.1605683E-04
   6714.00 -2.1951517E-04
   6714.50 -2.2304732E-04
   6715.00 -2.2665520E-04
   6715.50 -2.3034076E-04
   6716.00 -2.3410602E-04
   6716.50 -2.3795306E-04
   6717.00 -2.4188399E-04
   6717.50 -2.4590100E-04
   6718.00 -2.5000631E-04
   6718.50 -2.5420222E-04
   6719.00 -2.5849106E-04
   6719.50 -2.6287522E-04
   6720.00 -2.6735715E-04
   6720.50 -2.7193936E-04
   6721.00 -2.7662437E-04
   6721.50 -2.8141479E-04
   6722.00 -2.8631325E-04
   6722.50 -2.9132243E-04
   6723.00 -2.9644503E-04
   6723.50 -3.0168379E-04
   6724.00 -3.0704146E-04
   6724.50 -3.1252082E-04
   6725.00 -3.1812464E-04
   6725.50 -3.2385566E-04
   6726.00 -3.2971662E-04
   6726.50 -3.3571020E-04
   6727.00 -3.4183901E-04
   6727.50 -3.4810557E-04
   6728.00 -3.5451228E-04
   6728.50 -3.6106135E-04
   6729.00 -3.6775482E-04
   6729.50 -3.7459446E-04
   6730.00 -3.8158170E-04
   6730.50 -3.8871760E-04
   6731.00 -3.9600273E-04
   6731.50 -4.0343709E-04
   6732.00 -4.1101995E-04
   6732.50 -4.1874974E-04
   6733.00 -4.2662385E-04
   6733.50 -4.3463842E-04
   6734.00 -4.4278806E-04
   6734.50 -4.5106558E-04
   6735.00 -4.5946157E-04
   6735.50 -4.6796393E-04
   6736.00 -4.7655731E-04
   6736.50 -4.8522241E-04
   6737.00 -4.9393506E-04
   6737.50 -5.0266516E-04
   6738.00 -5.1137529E-04
   6738.50 -5.2001898E-04
   6739.00 -5.2853847E-04
   6739.50 -5.3686194E-04
   6740.00 -5.4489976E-04
   6740.50 -5.5253980E-04
   6741.00 -5.5964108E-04
   6741.50 -5.6602539E-04
   6742.00 -5.7146601E-04
   6742.50 -5.7567227E-04
   6743.00 -5.7826811E-04
   6743.50 -5.7876201E-04
   6744.00 -5.7650379E-04
   6744.50 -5.7062150E-04
   6745.00 -5.5992708E-04
   6745.50 -5.4277171E-04
   6746.00 -5.1681767E-04
   6746.50 -4.7866610E-04
   6747.00 -4.2322583E-04
   6747.50 -3.4259268E-04
   6748.00 -2.2394550E-04
   6748.50 -4.5314347E-05
   6749.00  2.3371811E-04
   6749.50  6.9503455E-04
   6750.00  1.5297131E-03
   6750.50  3.2930408E-03
   6751.00  7.9842865E-03
   6751.50  2.1424712E-02
   6752.00  4.7765724E-02
   6752.50  6.5057375E-02
   6753.00  4.7684664E-02
   6753.50  2.1262384E-02
   6754.00  7.7402750E-03
   6754.50  2.9667162E-03
   6755.00  1.1202315E-03
   6755.50  2.0133154E-04
   6756.00 -3.4549732E-04
   6756.50 -7.1156786E-04
   6757.00 -9.7900671E-04
   6757.50 -1.1884861E-03
   6758.00 -1.3622436E-03
   6758.50 -1.5133825E-03
   6759.00 -1.6501060E-03
   6759.50 -1.7778231E-03
   6760.00 -1.9002717E-03
   6760.50 -2.0201531E-03
   6761.00 -2.1395068E-03
   6761.50 -2.2599422E-03
   6762.00 -2.3827871E-03
   6762.50 -2.5091864E-03
   6763.00 -2.6401701E-03
   6763.50 -2.7767020E-03
   6764.00 -2.9197160E-03
   6764.50 -3.0701449E-03
   6765.00 -3.2289436E-03
   6765.50 -3.3971102E-03
   6766.00 -3.5757052E-03
   6766.50 -3.7658696E-03
   6767.00 -3.9688450E-03
   6767.50 -4.1859935E-03
   6768.00 -4.4188200E-03
   6768.50 -4.6689975E-03
   6769.00 -4.9383955E-03
   6769.50 -5.2291132E-03
   6770.00 -5.5435176E-03
   6770.50 -5.8842894E-03
   6771.00 -6.2544761E-03
   6771.50 -6.6575565E-03
   6772.00 -7.0975179E-03
   6772.50 -7.5789488E-03
   6773.00 -8.1071526E-03
   6773.50 -8.6882855E-03
   6774.00 -9.3295274E-03
   6774.50 -1.0039293E-02
   6775.00 -1.0827493E-02
   6775.50 -1.1705871E-02
   6776.00 -1.2688414E-02
   6776.50 -1.3791896E-02
   6777.00 -1.5036562E-02
   6777.50 -1.6447030E-02
   6778.00 -1.8053465E-02
   6778.50 -1.9893157E-02
   6779.00 -2.2012621E-02
   6779.50 -2.4470488E-02
   6780.00 -2.7341484E-02
   6780.50 -3.0722043E-02
   6781.00 -3.4738337E-02
   6781.50 -3.9558010E-02
   6782.00 -4.5407717E-02
   6782.50 -5.2599991E-02
   6783.00 -6.1575632E-02
   6783.50 -7.2972836E-02
   6784.00 -8.7744399E-02
   6784.50 -1.0736582E-01
   6785.00 -1.3422596E-01
   6785.50 -1.7241275E-01
   6786.00 -2.2943968E-01
   6786.50 -3.2051937E-01
   6787.00 -4.8113874E-01
   6787.50 -8.1440586E-01
   6788.00 -1.6915253E+00
   6788.50 -4.1933101E+00
   6789.00 -9.0905414E+00
   6789.50 -1.2307911E+01
   6790.00 -9.0896417E+00
   6790.50 -4.1915016E+00
   6791.00 -1.6887900E+00
   6791.50 -8.1071597E-01
   6792.00 -4.7645623E-01
   6792.50 -3.1479488E-01
   6793.00 -2.2261123E-01
   6793.50 -1.6440402E-01
   6794.00 -1.2494406E-01
   6794.50 -9.6698474E-02
   6795.00 -7.5556256E-02
   6795.50 -5.9100812E-02
   6796.00 -4.5822831E-02
   6796.50 -3.4727786E-02
   6797.00 -2.5125310E-02
   6797.50 -1.6508487E-02
   6798.00 -8.4797807E-03
   6798.50 -7.0152466E-04
   6799.00  7.1414415E-03
   6799.50  1.5375161E-02
   6800.00  2.4372945E-02
   6800.50  3.4603022E-02
   6801.00  4.6700334E-02
   6801.50  6.1586327E-02
   6802.00  8.0686087E-02
   6802.50  1.0635532E-01
   6803.00  1.4280308E-01
   6803.50  1.9834517E-01
   6804.00  2.9196153E-01
   6804.50  4.7777936E-01
   6805.00  9.4828759E-01
   6805.50  2.2616457E+00
   6806.00  4.8210059E+00
   6806.50  6.5548501E+00
   6807.00  5.0776924E+00
   6807.50  3.0204584E+00
   6808.00  3.0322949E+00
   6808.50  5.1167662E+00
   6809.00  6.6108969E+00
   6809.50  4.8635110E+00
   6810.00  2.2825495E+00
   6810.50  9.5853037E-01
   6811.00  4.8481884E-01
   6811.50  2.9830623E-01
   6812.00  2.0481844E-01
   6812.50  1.4977566E-01
   6813.00  1.1405590E-01
   6813.50  8.9295552E-02
   6814.00  7.1275695E-02
   6814.50  5.7650618E-02
   6815.00  4.7018918E-02
   6815.50  3.8495076E-02
   6816.00  3.1493389E-02
   6816.50  2.5611111E-02
   6817.00  2.0561553E-02
   6817.50  1.6133917E-02
   6818.00  1.2168121E-02
   6818.50  8.5383971E-03
   6819.00  5.1421587E-03
   6819.50  1.8920964E-03
   6820.00 -1.2897614E-03
   6820.50 -4.4768415E-03
   6821.00 -7.7422633E-03
   6821.50 -1.1162996E-02
   6822.00 -1.4824391E-02
   6822.50 -1.8825605E-02
   6823.00 -2.3286603E-02
   6823.50 -2.8357718E-02
   6824.00 -3.4233321E-02
   6824.50 -4.1172112E-02
   6825.00 -4.9528348E-02
   6825.50 -5.9801685E-02
   6826.00 -7.2720040E-02
   6826.50 -8.9383881E-02
   6827.00 -1.1153193E-01
   6827.50 -1.4206537E-01
   6828.00 -1.8617789E-01
   6828.50 -2.5410140E-01
   6829.00 -3.6904613E-01
   6829.50 -5.9666583E-01
   6830.00 -1.1688128E+00
   6830.50 -2.7563839E+00
   6831.00 -5.8533172E+00
   6831.50 -8.0307836E+00
   6832.00 -6.6121968E+00
   6832.50 -5.1873424E+00
   6833.00 -6.7346188E+00
   6833.50 -8.2190729E+00
   6834.00 -5.9880287E+00
   6834.50 -2.8054548E+00
   6835.00 -1.1713278E+00
   6835.50 -5.7889455E-01
   6836.00 -3.3870965E-01
   6836.50 -2.1221059E-01
   6837.00 -1.3131592E-01
   6837.50 -7.1117465E-02
   6838.00 -1.9322224E-02
   6838.50  3.2494575E-02
   6839.00  9.3019847E-02
   6839.50  1.7561550E-01
   6840.00  3.0843338E-01
   6840.50  5.7075085E-01
   6841.00  1.2458194E+00
   6841.50  3.1572469E+00
   6842.00  6.8923928E+00
   6842.50  9.3473035E+00
   6843.00  6.8996688E+00
   6843.50  3.1720490E+00
   6844.00  1.2686702E+00
   6844.50  6.0249510E-01
   6845.00  3.5032314E-01
   6845.50  2.2944949E-01
   6846.00  1.6136950E-01
   6846.50  1.1907930E-01
   6847.00  9.1013100E-02
   6847.50  7.1465795E-02
   6848.00  5.7338499E-02
   6848.50  4.6824099E-02
   6849.00  3.8809223E-02
   6849.50  3.2577042E-02
   6850.00  2.7649041E-02
   6850.50  2.3695971E-02
   6851.00  2.0485379E-02
   6851.50  1.7849470E-02
   6852.00  1.5664758E-02
   6852.50  1.3838816E-02
   6853.00  1.2301413E-02
   6853.50  1.0998469E-02
   6854.00  9.8878389E-03
   6854.50  8.9363228E-03
   6855.00  8.1175160E-03
   6855.50  7.4102333E-03
   6856.00  6.7973451E-03
   6856.50  6.2649042E-03
   6857.00  5.8014849E-03
   6857.50  5.3976782E-03
   6858.00  5.0457018E-03
   6858.50  4.7390974E-03
   6859.00  4.4724948E-03
   6859.50  4.2414256E-03
   6860.00  4.0421773E-03
   6860.50  3.8716782E-03
   6861.00  3.7274077E-03
   6861.50  3.6073263E-03
   6862.00  3.5098232E-03
   6862.50  3.4336784E-03
   6863.00  3.3780383E-03
   6863.50  3.3424033E-03
   6864.00  3.3266289E-03
   6864.50  3.3309389E-03
   6865.00  3.3559552E-03
   6865.50  3.4027449E-03
   6866.00  3.4728897E-03
   6866.50  3.5685855E-03
   6867.00  3.6927803E-03
   6867.50  3.8493663E-03
   6868.00  4.0434457E-03
   6868.50  4.2817054E-03
   6869.00  4.5729464E-03
   6869.50  4.9288481E-03
   6870.00  5.3650877E-03
   6870.50  5.9030188E-03
   6871.00  6.5722480E-03
   6871.50  7.4147061E-03
   6872.00  8.4912960E-03
   6872.50  9.8931755E-03
   6873.00  1.1761807E-02
   6873.50  1.4326623E-02
   6874.00  1.7980820E-02
   6874.50  2.3447989E-02
   6875.00  3.2194706E-02
   6875.50  4.7644886E-02
   6876.00  7.9752612E-02
   6876.50  1.6436547E-01
   6877.00  4.0586930E-01
   6877.50  8.7869909E-01
   6878.00  1.1891963E+00
   6878.50  8.7796279E-01
   6879.00  4.0430177E-01
   6879.50  1.6174742E-01
   6880.00  7.5662576E-02
   6880.50  4.1271293E-02
   6881.00  2.1830824E-02
   6881.50  4.7977366E-03
   6882.00 -2.2567324E-02
   6882.50 -8.8853549E-02
   6883.00 -2.1412250E-01
   6883.50 -2.9647208E-01
   6884.00 -2.1675111E-01
   6884.50 -9.4433687E-02
   6885.00 -3.1847055E-02
   6885.50 -9.6269766E-03
   6886.00 -5.4484959E-04
   6886.50  4.9715339E-03
   6887.00  1.0138981E-02
   6887.50  1.7681026E-02
   6888.00  3.4519274E-02
   6888.50  7.9813088E-02
   6889.00  1.6754588E-01
   6889.50  2.2850319E-01
   6890.00  1.8546556E-01
   6890.50  1.3644541E-01
   6891.00  1.6320871E-01
   6891.50  1.9418814E-01
   6892.00  1.4271481E-01
   6892.50  7.0270797E-02
   6893.00  3.3274380E-02
   6893.50  2.0112000E-02
   6894.00  1.5096500E-02
   6894.50  1.2811626E-02
   6895.00  1.1734742E-02
   6895.50  1.1347486E-02
   6896.00  1.1452699E-02
   6896.50  1.2002039E-02
   6897.00  1.3064471E-02
   6897.50  1.4893955E-02
   6898.00  1.8265071E-02
   6898.50  2.5926663E-02
   6899.00  4.5809386E-02
   6899.50  8.3668217E-02
   6900.00  1.1029186E-01
   6900.50  9.1758409E-02
   6901.00  6.3439160E-02
   6901.50  5.6758460E-02
   6902.00  7.0644691E-02
   6902.50  1.1043541E-01
   6903.00  2.2097087E-01
   6903.50  5.4002897E-01
   6904.00  1.1659290E+00
   6904.50  1.5748216E+00
   6905.00  1.1548284E+00
   6905.50  5.1288517E-01
   6906.00  1.6179076E-01
   6906.50 -3.4885144E-02
   6907.00 -3.2561882E-01
   6907.50 -8.3539214E-01
   6908.00 -1.1573976E+00
   6908.50 -8.0242793E-01
   6909.00 -2.3816700E-01
   6909.50  1.9248648E-01
   6910.00  7.8623393E-01
   6910.50  1.8084117E+00
   6911.00  2.4703443E+00
   6911.50  1.8193731E+00
   6912.00  8.3166907E-01
   6912.50  3.4659447E-01
   6913.00  2.0290349E-01
   6913.50  1.9294385E-01
   6914.00  3.0375980E-01
   6914.50  5.5831106E-01
   6915.00  7.1945412E-01
   6915.50  5.2417854E-01
   6916.00  2.4756449E-01
   6916.50  1.1811846E-01
   6917.00  9.9637945E-02
   6917.50  1.4745837E-01
   6918.00  3.0241803E-01
   6918.50  5.8151901E-01
   6919.00  6.5613194E-01
   6919.50  3.0662030E-01
   6920.00  3.2596077E-02
   6920.50  1.1391558E-02
   6921.00  2.6560506E-01
   6921.50  8.6233981E-01
   6922.00  1.6467308E+00
   6922.50  2.4337424E+00
   6923.00  2.4749028E+00
   6923.50  1.5798519E+00
   6924.00  6.8878340E-01
   6924.50  2.3592342E-01
   6925.00 -2.2664565E-02
   6925.50 -2.9611585E-01
   6926.00 -4.6771769E-01
   6926.50 -3.4951377E-01
   6927.00 -1.5319993E-01
   6927.50 -5.9833486E-02
   6928.00 -5.1413626E-02
   6928.50 -1.1634976E-01
   6929.00 -2.6392824E-01
   6929.50 -4.0903546E-01
   6930.00 -4.4841204E-01
   6930.50 -4.0289911E-01
   6931.00 -2.5852308E-01
   6931.50 -1.1278861E-01
   6932.00 -3.8586610E-02
   6932.50 -1.0153587E-02
   6933.00 -1.3523563E-03
   6933.50  1.5208565E-03
   6934.00  4.6390979E-03
   6934.50  9.1175109E-03
   6935.00  1.6080111E-02
   6935.50  2.9705664E-02
   6936.00  6.5347947E-02
   6936.50  1.6774919E-01
   6937.00  3.6842242E-01
   6937.50  4.9636206E-01
   6938.00  3.4946333E-01
   6938.50  1.1042877E-01
   6939.00 -9.5587056E-02
   6939.50 -3.3215617E-01
   6940.00 -4.7527832E-01
   6940.50 -3.4203944E-01
   6941.00 -1.2607195E-01
   6941.50  2.3107104E-02
   6942.00  1.5257701E-01
   6942.50  2.3998230E-01
   6943.00  2.3486279E-01
   6943.50  2.4491734E-01
   6944.00  2.8417304E-01
   6944.50  2.6229392E-01
   6945.00  1.9727052E-01
   6945.50  9.3927253E-02
   6946.00 -3.5741334E-02
   6946.50 -1.8443904E-01
   6947.00 -2.7347480E-01
   6947.50 -2.0811315E-01
   6948.00 -1.1032913E-01
   6948.50 -9.3882809E-02
   6949.00 -1.5208075E-01
   6949.50 -2.0436419E-01
   6950.00 -1.8837106E-01
   6950.50 -1.8144973E-01
   6951.00 -1.8343386E-01
   6951.50 -1.0967648E-01
   6952.00  9.1951145E-03
   6952.50  1.3548073E-01
   6953.00  2.0323884E-01
   6953.50  1.3159247E-01
   6954.00 -8.1731145E-03
   6954.50 -1.5613950E-01
   6955.00 -2.3869775E-01
   6955.50 -1.6954363E-01
   6956.00 -5.3380577E-02
   6956.50  3.3216327E-02
   6957.00  1.4609985E-01
   6957.50  3.3882099E-01
   6958.00  4.8376674E-01
   6958.50  4.2256562E-01
   6959.00  2.8137851E-01
   6959.50  1.5121570E-01
   6960.00  5.0976972E-02
   6960.50 -3.1069656E-02
   6961.00 -1.2079011E-01
   6961.50 -1.3704929E-01
   6962.00 -2.3375378E-02
   6962.50  8.0479368E-02
   6963.00  1.4973354E-01
   6963.50  1.8502659E-01
   6964.00  1.3268261E-01
   6964.50  5.8413959E-02
   6965.00  1.8322994E-02
   6965.50 -2.8323146E-03
   6966.00 -3.1316468E-02
   6966.50 -8.5774977E-02
   6967.00 -1.4019910E-01
   6967.50 -1.1883607E-01
   6968.00 -2.9873494E-02
   6968.50  2.3298097E-02
   6969.00  2.0836008E-02
   6969.50  5.4477610E-03
   6970.00 -3.7329273E-03
   6970.50  9.8395113E-03
   6971.00  6.1836882E-02
   6971.50  1.0686136E-01
   6972.00  1.0091378E-01
   6972.50  9.0090539E-02
   6973.00  6.6280184E-02
   6973.50 -3.0522855E-02
   6974.00 -1.3535400E-01
   6974.50 -1.4426921E-01
   6975.00 -7.1741097E-02
   6975.50  4.8719516E-03
   6976.00  2.2764399E-02
   6976.50 -3.5023255E-02
   6977.00 -9.5756457E-02
   6977.50 -8.1823530E-02
   6978.00 -5.4319009E-02
   6978.50 -4.0930952E-02
   6979.00  2.0657142E-02
   6979.50  8.7094237E-02
   6980.00  6.0547422E-02
   6980.50 -3.0968415E-02
   6981.00 -7.6946310E-02
   6981.50 -7.0214457E-02
   6982.00 -5.0185733E-02
   6982.50 -2.0016178E-02
   6983.00 -3.1277148E-03
   6983.50 -1.3038810E-02
   6984.00 -3.4076080E-02
   6984.50 -6.9043769E-02
   6985.00 -1.0172246E-01
   6985.50 -1.1027889E-01
   6986.00 -7.3836583E-02
   6986.50 -3.3957048E-02
   6987.00 -2.3395426E-02
   6987.50 -1.4247073E-02
   6988.00 -1.2704445E-02
   6988.50 -3.2270368E-02
   6989.00 -5.8407459E-02
   6989.50 -9.7918980E-02
   6990.00 -1.1359120E-01
   6990.50 -5.9802769E-02
   6991.00  2.1843112E-03
   6991.50  3.9590642E-02
   6992.00  6.1024190E-02
   6992.50  6.3391738E-02
   6993.00  4.0444406E-02
   6993.50 -9.7600298E-03
   6994.00 -6.7099167E-02
   6994.50 -9.7593329E-02
   6995.00 -8.3201384E-02
   6995.50 -3.2776744E-02
   6996.00  2.8604177E-02
   6996.50  5.5573921E-02
   6997.00  2.5832666E-02
   6997.50 -2.7898715E-02
   6998.00 -7.5953226E-02
   6998.50 -1.1730014E-01
   6999.00 -1.2440402E-01
   6999.50 -1.0979043E-01
   7000.00 -8.5293682E-02
   7000.50 -3.5110107E-02
   7001.00  1.8954384E-02
   7001.50  3.8005245E-02
   7002.00  4.0786302E-02
   7002.50  5.9226749E-02
   7003.00  7.4824043E-02
   7003.50  5.4743991E-02
   7004.00  1.5374108E-02
   7004.50 -2.4351274E-02
   7005.00 -4.2321198E-02
   7005.50 -2.2301677E-02
   7006.00  9.1869651E-03
   7006.50  2.5263806E-02
   7007.00  2.5704221E-02
   7007.50  1.5809117E-02
   7008.00  1.5827740E-03
   7008.50 -1.0003724E-02
   7009.00 -9.7594576E-03
   7009.50 -2.0787002E-04
   7010.00  1.4575663E-02
   7010.50  2.3354114E-02
   7011.00  3.9346890E-03
   7011.50 -2.0776726E-02
   7012.00 -1.2652963E-02
   7012.50  2.7042628E-02
   7013.00  6.3411066E-02
   7013.50  6.3797426E-02
   7014.00  3.8554196E-02
   7014.50  1.8837340E-02
   7015.00  7.9497865E-03
   7015.50  7.6305932E-03
   7016.00  2.7976599E-02
   7016.50  6.5520775E-02
   7017.00  8.4972327E-02
   7017.50  7.4368485E-02
   7018.00  5.6001365E-02
   7018.50  2.7098295E-02
   7019.00 -5.4306570E-03
   7019.50 -1.2468122E-02
   7020.00  2.3391734E-03
   7020.50  1.5841962E-02
   7021.00  1.9842492E-02
   7021.50  2.8911364E-02
   7022.00  4.7001007E-02
   7022.50  6.5059819E-02
   7023.00  7.6887102E-02
   7023.50  7.6376639E-02
   7024.00  5.7181450E-02
   7024.50  3.3073335E-02
   7025.00  1.2801594E-02
   7025.50 -7.7463026E-03
   7026.00 -1.5430945E-02
   7026.50  2.6434221E-03
   7027.00  2.6584841E-02
   7027.50  3.7381743E-02
   7028.00  4.5345815E-02
   7028.50  4.6517166E-02
   7029.00  3.1091557E-02
   7029.50  6.9297733E-03
   7030.00 -1.2371693E-02
   7030.50 -2.4179052E-02
   7031.00 -2.3611604E-02
   7031.50 -8.0961033E-03
   7032.00  1.2174671E-02
   7032.50  1.8893783E-02
   7033.00  8.3360961E-03
   7033.50 -9.1908756E-03
   7034.00 -2.6887827E-02
   7034.50 -3.6056284E-02
   7035.00 -3.2260475E-02
   7035.50 -2.8437440E-02
   7036.00 -3.0269193E-02
   7036.50 -2.4335895E-02
   7037.00 -5.2614841E-03
   7037.50  1.2216607E-02
   7038.00  1.5843566E-02
   7038.50  8.1466747E-03
   7039.00 -5.7074754E-03
   7039.50 -1.7978481E-02
   7040.00 -1.9000590E-02
   7040.50 -1.0292537E-02
   7041.00 -3.8280773E-03
   7041.50 -4.5065745E-03
   7042.00 -5.1652351E-04
   7042.50  1.3143526E-02
   7043.00  2.2340447E-02
   7043.50  1.9029062E-02
   7044.00  1.2347615E-02
   7044.50  9.7872359E-03
   7045.00  5.4981915E-03
   7045.50 -2.4947912E-03
   7046.00 -7.5996269E-03
   7046.50 -5.4550807E-03
   7047.00 -1.6612078E-03
   7047.50 -3.5403937E-03
   7048.00 -7.5376376E-03
   7048.50 -9.6314947E-03
   7049.00 -1.2665660E-02
   7049.50 -1.4912360E-02
   7050.00 -8.9149621E-03
   7050.50 -9.6770749E-04
   7051.00  1.4600776E-03
   7051.50  4.9876842E-03
   7052.00  1.2848571E-02
   7052.50  2.0888817E-02
   7053.00  2.6124531E-02
   7053.50  2.1363747E-02
   7054.00  8.8979525E-03
   7054.50  2.5165271E-04
   7055.00 -2.3685568E-03
   7055.50 -3.1280915E-03
   7056.00 -4.9217063E-03
   7056.50 -9.5058427E-03
   7057.00 -1.3161136E-02
   7057.50 -1.2481969E-02
   7058.00 -9.8120848E-03
   7058.50 -6.7899615E-03
   7059.00 -2.8202014E-03
   7059.50  2.4329760E-03
   7060.00  1.7878068E-03
   7060.50 -1.9265061E-03
   7061.00  1.0056093E-03
   7061.50  4.8307754E-03
   7062.00  3.9607884E-03
   7062.50  1.4339602E-03
   7063.00 -2.6989787E-03
   7063.50 -7.0998891E-03
   7064.00 -8.0234307E-03
   7064.50 -4.7232824E-03
   7065.00 -2.1501125E-03
   7065.50 -2.6827953E-03
   7066.00 -4.6241703E-03
   7066.50 -2.2145255E-03
   7067.00  3.6766965E-03
   7067.50  8.1786323E-03
   7068.00  1.0466671E-02
   7068.50  1.0665334E-02
   7069.00  8.8318822E-03
   7069.50  7.8730915E-03
   7070.00  1.0039488E-02
   7070.50  1.1761966E-02
   7071.00  1.1009933E-02
   7071.50  1.1196758E-02
   7072.00  1.2015250E-02
   7072.50  1.1947775E-02
   7073.00  1.0589938E-02
   7073.50  8.9943830E-03
   7074.00  7.2810783E-03
   7074.50  4.9424089E-03
   7075.00  3.8398314E-03
   7075.50  4.3295036E-03
   7076.00  3.8274425E-03
   7076.50  1.6661483E-03
   7077.00  3.6039781E-05
   7077.50  1.1407640E-03
   7078.00  3.0782257E-03
   7078.50  2.5803047E-03
   7079.00 -1.8734865E-04
   7079.50 -3.7673420E-03
   7080.00 -5.4488971E-03
   7080.50 -3.5573510E-03
   7081.00  1.9102137E-04
   7081.50  2.5930203E-03
   7082.00  2.0379949E-03
   7082.50 -7.1170153E-04
   7083.00 -4.6260181E-03
   7083.50 -6.9725075E-03
   7084.00 -6.6167131E-03
   7084.50 -4.3715321E-03
   7085.00 -1.7016714E-03
   7085.50 -1.2931982E-03
   7086.00 -2.6177513E-03
   7086.50 -3.9433916E-03
   7087.00 -4.9428203E-03
   7087.50 -5.6291658E-03
   7088.00 -5.0499021E-03
   7088.50 -2.3194557E-03
   7089.00  3.4674563E-04
   7089.50 -1.0990557E-04
   7090.00 -1.8055532E-03
   7090.50 -1.5275165E-03
   7091.00  5.1456876E-04
   7091.50  1.9989480E-03
   7092.00  1.8796108E-03
   7092.50  2.2541913E-03
