    Energy    <xanes>    
  18786.00  2.5632444E-05
  18786.80  2.5762326E-05
  18787.60  2.5893294E-05
  18788.40  2.6025360E-05
  18789.20  2.6158537E-05
  18790.00  2.6292839E-05
  18790.80  2.6428279E-05
  18791.60  2.6564872E-05
  18792.40  2.6702631E-05
  18793.20  2.6841570E-05
  18794.00  2.6981705E-05
  18794.80  2.7123049E-05
  18795.60  2.7265619E-05
  18796.40  2.7409428E-05
  18797.20  2.7554494E-05
  18798.00  2.7700831E-05
  18798.80  2.7848455E-05
  18799.60  2.7997383E-05
  18800.40  2.8147632E-05
  18801.20  2.8299218E-05
  18802.00  2.8452158E-05
  18802.80  2.8606470E-05
  18803.60  2.8762172E-05
  18804.40  2.8919281E-05
  18805.20  2.9077816E-05
  18806.00  2.9237796E-05
  18806.80  2.9399239E-05
  18807.60  2.9562165E-05
  18808.40  2.9726594E-05
  18809.20  2.9892545E-05
  18810.00  3.0060039E-05
  18810.80  3.0229096E-05
  18811.60  3.0399738E-05
  18812.40  3.0571986E-05
  18813.20  3.0745862E-05
  18814.00  3.0921388E-05
  18814.80  3.1098586E-05
  18815.60  3.1277481E-05
  18816.40  3.1458095E-05
  18817.20  3.1640451E-05
  18818.00  3.1824575E-05
  18818.80  3.2010492E-05
  18819.60  3.2198226E-05
  18820.40  3.2387803E-05
  18821.20  3.2579249E-05
  18822.00  3.2772592E-05
  18822.80  3.2967857E-05
  18823.60  3.3165074E-05
  18824.40  3.3364270E-05
  18825.20  3.3565473E-05
  18826.00  3.3768714E-05
  18826.80  3.3974023E-05
  18827.60  3.4181429E-05
  18828.40  3.4390964E-05
  18829.20  3.4602659E-05
  18830.00  3.4816547E-05
  18830.80  3.5032661E-05
  18831.60  3.5251035E-05
  18832.40  3.5471702E-05
  18833.20  3.5694698E-05
  18834.00  3.5920059E-05
  18834.80  3.6147820E-05
  18835.60  3.6378020E-05
  18836.40  3.6610695E-05
  18837.20  3.6845886E-05
  18838.00  3.7083631E-05
  18838.80  3.7323970E-05
  18839.60  3.7566945E-05
  18840.40  3.7812599E-05
  18841.20  3.8060973E-05
  18842.00  3.8312112E-05
  18842.80  3.8566061E-05
  18843.60  3.8822866E-05
  18844.40  3.9082573E-05
  18845.20  3.9345230E-05
  18846.00  3.9610887E-05
  18846.80  3.9879592E-05
  18847.60  4.0151398E-05
  18848.40  4.0426356E-05
  18849.20  4.0704520E-05
  18850.00  4.0985944E-05
  18850.80  4.1270684E-05
  18851.60  4.1558797E-05
  18852.40  4.1850343E-05
  18853.20  4.2145379E-05
  18854.00  4.2443969E-05
  18854.80  4.2746173E-05
  18855.60  4.3052057E-05
  18856.40  4.3361686E-05
  18857.20  4.3675126E-05
  18858.00  4.3992448E-05
  18858.80  4.4313720E-05
  18859.60  4.4639016E-05
  18860.40  4.4968408E-05
  18861.20  4.5301974E-05
  18862.00  4.5639789E-05
  18862.80  4.5981934E-05
  18863.60  4.6328491E-05
  18864.40  4.6679542E-05
  18865.20  4.7035173E-05
  18866.00  4.7395473E-05
  18866.80  4.7760530E-05
  18867.60  4.8130438E-05
  18868.40  4.8505291E-05
  18869.20  4.8885186E-05
  18870.00  4.9270224E-05
  18870.80  4.9660506E-05
  18871.60  5.0056138E-05
  18872.40  5.0457227E-05
  18873.20  5.0863885E-05
  18874.00  5.1276226E-05
  18874.80  5.1694367E-05
  18875.60  5.2118427E-05
  18876.40  5.2548531E-05
  18877.20  5.2984805E-05
  18878.00  5.3427380E-05
  18878.80  5.3876391E-05
  18879.60  5.4331976E-05
  18880.40  5.4794277E-05
  18881.20  5.5263439E-05
  18882.00  5.5739615E-05
  18882.80  5.6222958E-05
  18883.60  5.6713629E-05
  18884.40  5.7211792E-05
  18885.20  5.7717615E-05
  18886.00  5.8231275E-05
  18886.80  5.8752949E-05
  18887.60  5.9282824E-05
  18888.40  5.9821091E-05
  18889.20  6.0367947E-05
  18890.00  6.0923595E-05
  18890.80  6.1488245E-05
  18891.60  6.2062114E-05
  18892.40  6.2645424E-05
  18893.20  6.3238407E-05
  18894.00  6.3841301E-05
  18894.80  6.4454353E-05
  18895.60  6.5077816E-05
  18896.40  6.5711955E-05
  18897.20  6.6357040E-05
  18898.00  6.7013354E-05
  18898.80  6.7681187E-05
  18899.60  6.8360841E-05
  18900.40  6.9052628E-05
  18901.20  6.9756871E-05
  18902.00  7.0473904E-05
  18902.80  7.1204074E-05
  18903.60  7.1947741E-05
  18904.40  7.2705277E-05
  18905.20  7.3477069E-05
  18906.00  7.4263518E-05
  18906.80  7.5065040E-05
  18907.60  7.5882068E-05
  18908.40  7.6715050E-05
  18909.20  7.7564454E-05
  18910.00  7.8430764E-05
  18910.80  7.9314485E-05
  18911.60  8.0216143E-05
  18912.40  8.1136282E-05
  18913.20  8.2075472E-05
  18914.00  8.3034306E-05
  18914.80  8.4013401E-05
  18915.60  8.5013400E-05
  18916.40  8.6034976E-05
  18917.20  8.7078829E-05
  18918.00  8.8145690E-05
  18918.80  8.9236323E-05
  18919.60  9.0351529E-05
  18920.40  9.1492140E-05
  18921.20  9.2659031E-05
  18922.00  9.3853117E-05
  18922.80  9.5075356E-05
  18923.60  9.6326749E-05
  18924.40  9.7608351E-05
  18925.20  9.8921265E-05
  18926.00  1.0026665E-04
  18926.80  1.0164572E-04
  18927.60  1.0305976E-04
  18928.40  1.0451012E-04
  18929.20  1.0599820E-04
  18930.00  1.0752551E-04
  18930.80  1.0909361E-04
  18931.60  1.1070416E-04
  18932.40  1.1235892E-04
  18933.20  1.1405973E-04
  18934.00  1.1580855E-04
  18934.80  1.1760745E-04
  18935.60  1.1945862E-04
  18936.40  1.2136439E-04
  18937.20  1.2332721E-04
  18938.00  1.2534971E-04
  18938.80  1.2743468E-04
  18939.60  1.2958507E-04
  18940.40  1.3180403E-04
  18941.20  1.3409495E-04
  18942.00  1.3646139E-04
  18942.80  1.3890722E-04
  18943.60  1.4143654E-04
  18944.40  1.4405375E-04
  18945.20  1.4676358E-04
  18946.00  1.4957111E-04
  18946.80  1.5248181E-04
  18947.60  1.5550156E-04
  18948.40  1.5863673E-04
  18949.20  1.6189420E-04
  18950.00  1.6528140E-04
  18950.80  1.6880641E-04
  18951.60  1.7247802E-04
  18952.40  1.7630579E-04
  18953.20  1.8030017E-04
  18954.00  1.8447256E-04
  18954.80  1.8883549E-04
  18955.60  1.9340271E-04
  18956.40  1.9818939E-04
  18957.20  2.0321227E-04
  18958.00  2.0848991E-04
  18958.80  2.1404292E-04
  18959.60  2.1989430E-04
  18960.40  2.2606977E-04
  18961.20  2.3259820E-04
  18962.00  2.3951216E-04
  18962.80  2.4684847E-04
  18963.60  2.5464903E-04
  18964.40  2.6296169E-04
  18965.20  2.7184141E-04
  18966.00  2.8135161E-04
  18966.80  2.9156599E-04
  18967.60  3.0257068E-04
  18968.40  3.1446709E-04
  18969.20  3.2737550E-04
  18970.00  3.4143977E-04
  18970.80  3.5683350E-04
  18971.60  3.7376831E-04
  18972.40  3.9250493E-04
  18973.20  4.1336849E-04
  18974.00  4.3676980E-04
  18974.80  4.6323561E-04
  18975.60  4.9345237E-04
  18976.40  5.2833114E-04
  18977.20  5.6910581E-04
  18978.00  6.1748612E-04
  18978.80  6.7590251E-04
  18979.60  7.4791027E-04
  18980.40  8.3887785E-04
  18981.20  9.5719413E-04
  18982.00  1.1164283E-03
  18982.80  1.3391484E-03
  18983.60  1.6629006E-03
  18984.00  1.8798573E-03
  18984.80  2.4630905E-03
  18985.60  3.2456816E-03
  18986.40  4.0320796E-03
  18987.20  4.4956953E-03
  18988.00  4.5719124E-03
  18988.80  4.4273387E-03
  18989.60  4.2138315E-03
  18990.40  4.0101082E-03
  18991.20  3.8511169E-03
  18992.00  3.7549805E-03
  18992.80  3.7389981E-03
  18993.60  3.8197476E-03
  18994.40  4.0077023E-03
  18995.20  4.3091713E-03
  18996.00  4.7302252E-03
  18996.80  5.2722567E-03
  18997.60  5.9210332E-03
  18998.40  6.6400561E-03
  18999.20  7.3748151E-03
  19000.00  8.0672921E-03
  19000.80  8.6734711E-03
  19001.60  9.1739696E-03
  19002.40  9.5731932E-03
  19003.20  9.8905534E-03
  19004.00  1.0150463E-02
  19004.80  1.0375378E-02
  19005.60  1.0582575E-02
  19006.40  1.0783498E-02
  19007.20  1.0984339E-02
  19008.00  1.1186969E-02
  19008.80  1.1389799E-02
  19009.60  1.1588427E-02
  19010.40  1.1776118E-02
  19011.20  1.1944245E-02
  19012.00  1.2082862E-02
  19012.80  1.2181597E-02
  19013.60  1.2230939E-02
  19014.40  1.2223844E-02
  19015.20  1.2157345E-02
  19016.00  1.2033658E-02
  19016.80  1.1860307E-02
  19017.60  1.1649081E-02
  19018.40  1.1414100E-02
  19019.20  1.1169613E-02
  19020.00  1.0928156E-02
  19020.80  1.0699464E-02
  19021.60  1.0490174E-02
  19022.40  1.0304104E-02
  19023.20  1.0142843E-02
  19024.00  1.0006400E-02
  19024.80  9.8937887E-03
  19025.60  9.8034745E-03
  19026.40  9.7336909E-03
  19027.20  9.6826359E-03
  19028.00  9.6485843E-03
  19028.80  9.6299396E-03
  19029.60  9.6252484E-03
  19030.40  9.6331928E-03
  19031.20  9.6525719E-03
  19032.00  9.6822804E-03
  19032.80  9.7212871E-03
  19033.60  9.7686174E-03
  19034.40  9.8233389E-03
  19035.20  9.8845523E-03
  19036.00  9.9513846E-03
  19036.80  1.0022986E-02
  19037.60  1.0098530E-02
  19038.40  1.0177213E-02
  19039.20  1.0258261E-02
  19040.00  1.0340928E-02
  19040.80  1.0424506E-02
  19041.60  1.0508327E-02
  19042.40  1.0591768E-02
  19043.20  1.0674255E-02
  19044.00  1.0755264E-02
  19044.80  1.0834325E-02
  19045.60  1.0911014E-02
  19046.40  1.0984956E-02
  19047.20  1.1055817E-02
  19048.00  1.1123298E-02
  19048.80  1.1187124E-02
  19049.60  1.1247043E-02
  19050.40  1.1302817E-02
  19051.20  1.1354219E-02
  19052.00  1.1401034E-02
  19052.80  1.1443059E-02
  19053.60  1.1480113E-02
  19054.40  1.1512041E-02
  19055.20  1.1538728E-02
  19056.00  1.1560111E-02
  19056.80  1.1576190E-02
  19057.60  1.1587035E-02
  19058.40  1.1592799E-02
  19059.20  1.1593715E-02
  19060.00  1.1590100E-02
  19060.80  1.1582343E-02
  19061.60  1.1570894E-02
  19062.40  1.1556256E-02
  19063.20  1.1538961E-02
  19064.00  1.1519557E-02
  19064.80  1.1498592E-02
  19065.60  1.1476593E-02
  19066.40  1.1454059E-02
  19067.20  1.1431444E-02
  19068.00  1.1409155E-02
  19068.80  1.1387542E-02
  19069.60  1.1366894E-02
  19070.40  1.1347442E-02
  19071.20  1.1329358E-02
  19072.00  1.1312756E-02
  19072.80  1.1297698E-02
  19073.60  1.1284195E-02
  19074.40  1.1272215E-02
  19075.20  1.1261687E-02
  19076.00  1.1252505E-02
  19076.80  1.1244535E-02
  19077.60  1.1237622E-02
  19078.40  1.1231593E-02
  19079.20  1.1226262E-02
  19080.00  1.1221441E-02
  19080.80  1.1216937E-02
  19081.60  1.1212564E-02
  19082.40  1.1208144E-02
  19083.20  1.1203510E-02
  19084.00  1.1198514E-02
  19084.80  1.1193025E-02
  19085.60  1.1186938E-02
  19086.40  1.1180169E-02
  19087.20  1.1172662E-02
  19088.00  1.1164389E-02
  19088.80  1.1155347E-02
  19089.60  1.1145564E-02
  19090.40  1.1135093E-02
  19091.20  1.1124014E-02
  19092.00  1.1112430E-02
  19092.80  1.1100468E-02
  19093.60  1.1088274E-02
  19094.40  1.1076012E-02
  19095.20  1.1063858E-02
  19096.00  1.1052000E-02
  19096.80  1.1040631E-02
  19097.60  1.1029947E-02
  19098.40  1.1020144E-02
  19099.20  1.1011415E-02
  19100.00  1.1003945E-02
  19100.80  1.0997911E-02
  19101.60  1.0993478E-02
  19102.40  1.0990797E-02
  19103.20  1.0990003E-02
  19104.00  1.0991213E-02
  19104.80  1.0994526E-02
  19105.60  1.1000020E-02
  19106.40  1.1007751E-02
  19107.20  1.1017754E-02
  19108.00  1.1030042E-02
  19108.80  1.1044603E-02
  19109.60  1.1061407E-02
  19110.40  1.1080399E-02
  19111.20  1.1101508E-02
  19112.00  1.1124639E-02
  19112.80  1.1149682E-02
  19113.60  1.1176509E-02
  19114.40  1.1204978E-02
  19115.20  1.1234934E-02
  19116.00  1.1266207E-02
  19116.80  1.1298622E-02
  19117.60  1.1331992E-02
  19118.40  1.1366126E-02
  19119.20  1.1400825E-02
  19120.00  1.1435890E-02
  19120.80  1.1471118E-02
  19121.60  1.1506309E-02
  19122.40  1.1541260E-02
  19123.20  1.1575774E-02
  19124.00  1.1609658E-02
  19124.80  1.1642724E-02
  19125.60  1.1674790E-02
  19126.40  1.1705682E-02
  19127.20  1.1735238E-02
  19128.00  1.1763302E-02
  19128.80  1.1789731E-02
  19129.60  1.1814395E-02
  19130.40  1.1837175E-02
  19131.20  1.1857967E-02
  19132.00  1.1876681E-02
  19132.80  1.1893241E-02
  19133.60  1.1907587E-02
  19134.40  1.1919675E-02
  19135.20  1.1929478E-02
  19136.00  1.1936981E-02
  19136.80  1.1942190E-02
  19137.60  1.1945123E-02
  19138.40  1.1945816E-02
  19139.20  1.1944319E-02
  19140.00  1.1940696E-02
  19140.80  1.1935026E-02
  19141.60  1.1927399E-02
  19142.40  1.1917919E-02
  19143.20  1.1906699E-02
  19144.00  1.1893865E-02
  19144.80  1.1879549E-02
  19145.60  1.1863893E-02
  19146.40  1.1847043E-02
  19147.20  1.1829152E-02
  19148.00  1.1810378E-02
  19148.80  1.1790880E-02
  19149.60  1.1770821E-02
  19150.40  1.1750364E-02
  19151.20  1.1729672E-02
  19152.00  1.1708907E-02
  19152.80  1.1688230E-02
  19153.60  1.1667797E-02
  19154.40  1.1647761E-02
  19155.20  1.1628267E-02
  19156.00  1.1609455E-02
  19156.80  1.1591455E-02
  19157.60  1.1574390E-02
  19158.40  1.1558371E-02
  19159.20  1.1543499E-02
  19160.00  1.1529864E-02
  19160.80  1.1517547E-02
  19161.60  1.1506614E-02
  19162.40  1.1497122E-02
  19163.20  1.1489113E-02
  19164.00  1.1482620E-02
  19164.80  1.1477662E-02
  19165.60  1.1474244E-02
  19166.40  1.1472360E-02
  19167.20  1.1471993E-02
  19168.00  1.1473110E-02
  19168.80  1.1475669E-02
  19169.60  1.1479615E-02
  19170.40  1.1484880E-02
  19171.20  1.1491388E-02
  19172.00  1.1499052E-02
  19172.80  1.1507775E-02
  19173.60  1.1517452E-02
  19174.40  1.1527969E-02
  19175.20  1.1539209E-02
  19176.00  1.1551047E-02
  19176.80  1.1563355E-02
  19177.60  1.1576001E-02
  19178.40  1.1588854E-02
  19179.20  1.1601782E-02
  19180.00  1.1614653E-02
  19180.80  1.1627340E-02
  19181.60  1.1639718E-02
  19182.40  1.1651669E-02
  19183.20  1.1663080E-02
  19184.00  1.1673849E-02
  19184.80  1.1683880E-02
  19185.60  1.1693087E-02
  19186.40  1.1701398E-02
  19187.20  1.1708747E-02
  19188.00  1.1715083E-02
  19188.80  1.1720364E-02
  19189.60  1.1724561E-02
  19190.40  1.1727654E-02
  19191.20  1.1729634E-02
  19192.00  1.1730503E-02
  19192.80  1.1730272E-02
  19193.60  1.1728963E-02
  19194.40  1.1726606E-02
  19195.20  1.1723242E-02
  19196.00  1.1718916E-02
  19196.80  1.1713687E-02
  19197.60  1.1707616E-02
  19198.40  1.1700774E-02
  19199.20  1.1693237E-02
  19200.00  1.1685086E-02
  19200.80  1.1676405E-02
  19201.60  1.1667285E-02
  19202.40  1.1657818E-02
  19203.20  1.1648098E-02
  19204.00  1.1638219E-02
  19204.80  1.1628277E-02
  19205.60  1.1618367E-02
  19206.40  1.1608580E-02
  19207.20  1.1599007E-02
  19208.00  1.1589735E-02
  19208.80  1.1580845E-02
  19209.60  1.1572412E-02
  19210.40  1.1564508E-02
  19211.20  1.1557194E-02
  19212.00  1.1550526E-02
  19212.80  1.1544549E-02
  19213.60  1.1539301E-02
  19214.40  1.1534806E-02
  19215.20  1.1531082E-02
  19216.00  1.1528134E-02
  19216.80  1.1525956E-02
  19217.60  1.1524529E-02
  19218.40  1.1523827E-02
  19219.20  1.1523808E-02
  19220.00  1.1524423E-02
  19220.80  1.1525609E-02
  19221.60  1.1527296E-02
  19222.40  1.1529403E-02
  19223.20  1.1531843E-02
  19224.00  1.1534519E-02
  19224.80  1.1537329E-02
  19225.60  1.1540165E-02
  19226.40  1.1542915E-02
  19227.20  1.1545465E-02
  19228.00  1.1547698E-02
  19228.80  1.1549497E-02
  19229.60  1.1550747E-02
  19230.40  1.1551336E-02
  19231.20  1.1551155E-02
  19232.00  1.1550102E-02
  19232.80  1.1548081E-02
  19233.60  1.1545005E-02
  19234.40  1.1540797E-02
  19235.20  1.1535390E-02
  19236.00  1.1528726E-02
  19236.80  1.1520764E-02
  19237.60  1.1511471E-02
  19238.40  1.1500828E-02
  19239.20  1.1488832E-02
  19240.00  1.1475488E-02
  19240.80  1.1460817E-02
  19241.60  1.1444852E-02
  19242.40  1.1427638E-02
  19243.20  1.1409229E-02
  19244.00  1.1389692E-02
  19244.80  1.1369101E-02
  19245.60  1.1347539E-02
  19246.40  1.1325094E-02
  19247.20  1.1301860E-02
  19248.00  1.1277935E-02
  19248.80  1.1253419E-02
  19249.60  1.1228410E-02
  19250.40  1.1203008E-02
  19251.20  1.1177310E-02
  19252.00  1.1151407E-02
  19252.80  1.1125387E-02
  19253.60  1.1099332E-02
  19254.40  1.1073316E-02
  19255.20  1.1047406E-02
  19256.00  1.1021661E-02
  19256.80  1.0996132E-02
  19257.60  1.0970863E-02
  19258.40  1.0945893E-02
  19259.20  1.0921253E-02
  19260.00  1.0896969E-02
  19260.80  1.0873066E-02
  19261.60  1.0849562E-02
  19262.40  1.0826476E-02
  19263.20  1.0803820E-02
  19264.00  1.0781604E-02
  19264.80  1.0759833E-02
  19265.60  1.0738507E-02
  19266.40  1.0717618E-02
  19267.20  1.0697155E-02
  19268.00  1.0677101E-02
  19268.80  1.0657435E-02
  19269.60  1.0638134E-02
  19270.40  1.0619176E-02
  19271.20  1.0600538E-02
  19272.00  1.0582199E-02
  19272.80  1.0564143E-02
  19273.60  1.0546360E-02
  19274.40  1.0528844E-02
  19275.20  1.0511597E-02
  19276.00  1.0494631E-02
  19276.80  1.0477963E-02
  19277.60  1.0461621E-02
  19278.40  1.0445636E-02
  19279.20  1.0430050E-02
  19280.00  1.0414906E-02
  19280.80  1.0400249E-02
  19281.60  1.0386125E-02
  19282.40  1.0372574E-02
  19283.20  1.0359633E-02
  19284.00  1.0347327E-02
  19284.80  1.0335675E-02
  19285.60  1.0324682E-02
  19286.00  1.0319432E-02
