    Energy    <xanes>    
   7559.00  2.7130068E-05
   7559.50  2.7245230E-05
   7560.00  2.7361200E-05
   7560.50  2.7477987E-05
   7561.00  2.7595598E-05
   7561.50  2.7714043E-05
   7562.00  2.7833330E-05
   7562.50  2.7953467E-05
   7563.00  2.8074462E-05
   7563.50  2.8196326E-05
   7564.00  2.8319066E-05
   7564.50  2.8442692E-05
   7565.00  2.8567213E-05
   7565.50  2.8692638E-05
   7566.00  2.8818977E-05
   7566.50  2.8946240E-05
   7567.00  2.9074435E-05
   7567.50  2.9203573E-05
   7568.00  2.9333663E-05
   7568.50  2.9464717E-05
   7569.00  2.9596744E-05
   7569.50  2.9729754E-05
   7570.00  2.9863758E-05
   7570.50  2.9998768E-05
   7571.00  3.0134792E-05
   7571.50  3.0271844E-05
   7572.00  3.0409933E-05
   7572.50  3.0549071E-05
   7573.00  3.0689270E-05
   7573.50  3.0830541E-05
   7574.00  3.0972895E-05
   7574.50  3.1116346E-05
   7575.00  3.1260905E-05
   7575.50  3.1406585E-05
   7576.00  3.1553398E-05
   7576.50  3.1701356E-05
   7577.00  3.1850473E-05
   7577.50  3.2000762E-05
   7578.00  3.2152235E-05
   7578.50  3.2304907E-05
   7579.00  3.2458791E-05
   7579.50  3.2613902E-05
   7580.00  3.2770252E-05
   7580.50  3.2927857E-05
   7581.00  3.3086731E-05
   7581.50  3.3246889E-05
   7582.00  3.3408345E-05
   7582.50  3.3571115E-05
   7583.00  3.3735215E-05
   7583.50  3.3900660E-05
   7584.00  3.4067466E-05
   7584.50  3.4235649E-05
   7585.00  3.4405226E-05
   7585.50  3.4576213E-05
   7586.00  3.4748628E-05
   7586.50  3.4922487E-05
   7587.00  3.5097808E-05
   7587.50  3.5274609E-05
   7588.00  3.5452908E-05
   7588.50  3.5632724E-05
   7589.00  3.5814074E-05
   7589.50  3.5996979E-05
   7590.00  3.6181456E-05
   7590.50  3.6367527E-05
   7591.00  3.6555211E-05
   7591.50  3.6744527E-05
   7592.00  3.6935498E-05
   7592.50  3.7128143E-05
   7593.00  3.7322483E-05
   7593.50  3.7518542E-05
   7594.00  3.7716340E-05
   7594.50  3.7915900E-05
   7595.00  3.8117246E-05
   7595.50  3.8320399E-05
   7596.00  3.8525383E-05
   7596.50  3.8732223E-05
   7597.00  3.8940943E-05
   7597.50  3.9151568E-05
   7598.00  3.9364123E-05
   7598.50  3.9578633E-05
   7599.00  3.9795126E-05
   7599.50  4.0013627E-05
   7600.00  4.0234163E-05
   7600.50  4.0456763E-05
   7601.00  4.0681454E-05
   7601.50  4.0908264E-05
   7602.00  4.1137224E-05
   7602.50  4.1368362E-05
   7603.00  4.1601709E-05
   7603.50  4.1837295E-05
   7604.00  4.2075153E-05
   7604.50  4.2315312E-05
   7605.00  4.2557807E-05
   7605.50  4.2802671E-05
   7606.00  4.3049936E-05
   7606.50  4.3299637E-05
   7607.00  4.3551810E-05
   7607.50  4.3806490E-05
   7608.00  4.4063713E-05
   7608.50  4.4323516E-05
   7609.00  4.4585938E-05
   7609.50  4.4851016E-05
   7610.00  4.5118791E-05
   7610.50  4.5389301E-05
   7611.00  4.5662588E-05
   7611.50  4.5938694E-05
   7612.00  4.6217660E-05
   7612.50  4.6499531E-05
   7613.00  4.6784351E-05
   7613.50  4.7072163E-05
   7614.00  4.7363016E-05
   7614.50  4.7656955E-05
   7615.00  4.7954029E-05
   7615.50  4.8254286E-05
   7616.00  4.8557776E-05
   7616.50  4.8864550E-05
   7617.00  4.9174661E-05
   7617.50  4.9488162E-05
   7618.00  4.9805106E-05
   7618.50  5.0125550E-05
   7619.00  5.0449549E-05
   7619.50  5.0777162E-05
   7620.00  5.1108448E-05
   7620.50  5.1443468E-05
   7621.00  5.1782282E-05
   7621.50  5.2124954E-05
   7622.00  5.2471549E-05
   7622.50  5.2822132E-05
   7623.00  5.3176771E-05
   7623.50  5.3535535E-05
   7624.00  5.3898494E-05
   7624.50  5.4265721E-05
   7625.00  5.4637288E-05
   7625.50  5.5013272E-05
   7626.00  5.5393750E-05
   7626.50  5.5778801E-05
   7627.00  5.6168505E-05
   7627.50  5.6562946E-05
   7628.00  5.6962208E-05
   7628.50  5.7366378E-05
   7629.00  5.7775545E-05
   7629.50  5.8189800E-05
   7630.00  5.8609235E-05
   7630.50  5.9033947E-05
   7631.00  5.9464034E-05
   7631.50  5.9899596E-05
   7632.00  6.0340735E-05
   7632.50  6.0787556E-05
   7633.00  6.1240169E-05
   7633.50  6.1698684E-05
   7634.00  6.2163214E-05
   7634.50  6.2633877E-05
   7635.00  6.3110790E-05
   7635.50  6.3594079E-05
   7636.00  6.4083867E-05
   7636.50  6.4580285E-05
   7637.00  6.5083466E-05
   7637.50  6.5593545E-05
   7638.00  6.6110662E-05
   7638.50  6.6634963E-05
   7639.00  6.7166593E-05
   7639.50  6.7705705E-05
   7640.00  6.8252455E-05
   7640.50  6.8807004E-05
   7641.00  6.9369515E-05
   7641.50  6.9940160E-05
   7642.00  7.0519112E-05
   7642.50  7.1106550E-05
   7643.00  7.1702660E-05
   7643.50  7.2307632E-05
   7644.00  7.2921660E-05
   7644.50  7.3544947E-05
   7645.00  7.4177701E-05
   7645.50  7.4820134E-05
   7646.00  7.5472467E-05
   7646.50  7.6134927E-05
   7647.00  7.6807748E-05
   7647.50  7.7491171E-05
   7648.00  7.8185445E-05
   7648.50  7.8890826E-05
   7649.00  7.9607580E-05
   7649.50  8.0335980E-05
   7650.00  8.1076308E-05
   7650.50  8.1828854E-05
   7651.00  8.2593921E-05
   7651.50  8.3371819E-05
   7652.00  8.4162869E-05
   7652.50  8.4967404E-05
   7653.00  8.5785767E-05
   7653.50  8.6618313E-05
   7654.00  8.7465410E-05
   7654.50  8.8327438E-05
   7655.00  8.9204792E-05
   7655.50  9.0097878E-05
   7656.00  9.1007121E-05
   7656.50  9.1932957E-05
   7657.00  9.2875840E-05
   7657.50  9.3836242E-05
   7658.00  9.4814650E-05
   7658.50  9.5811571E-05
   7659.00  9.6827531E-05
   7659.50  9.7863077E-05
   7660.00  9.8918775E-05
   7660.50  9.9995215E-05
   7661.00  1.0109301E-04
   7661.50  1.0221280E-04
   7662.00  1.0335524E-04
   7662.50  1.0452103E-04
   7663.00  1.0571088E-04
   7663.50  1.0692555E-04
   7664.00  1.0816581E-04
   7664.50  1.0943248E-04
   7665.00  1.1072641E-04
   7665.50  1.1204847E-04
   7666.00  1.1339961E-04
   7666.50  1.1478078E-04
   7667.00  1.1619299E-04
   7667.50  1.1763731E-04
   7668.00  1.1911483E-04
   7668.50  1.2062671E-04
   7669.00  1.2217416E-04
   7669.50  1.2375846E-04
   7670.00  1.2538094E-04
   7670.50  1.2704298E-04
   7671.00  1.2874607E-04
   7671.50  1.3049173E-04
   7672.00  1.3228160E-04
   7672.50  1.3411737E-04
   7673.00  1.3600084E-04
   7673.50  1.3793390E-04
   7674.00  1.3991854E-04
   7674.50  1.4195686E-04
   7675.00  1.4405109E-04
   7675.50  1.4620356E-04
   7676.00  1.4841676E-04
   7676.50  1.5069331E-04
   7677.00  1.5303599E-04
   7677.50  1.5544775E-04
   7678.00  1.5793172E-04
   7678.50  1.6049122E-04
   7679.00  1.6312978E-04
   7679.50  1.6585116E-04
   7680.00  1.6865937E-04
   7680.50  1.7155869E-04
   7681.00  1.7455369E-04
   7681.50  1.7764923E-04
   7682.00  1.8085055E-04
   7682.50  1.8416325E-04
   7683.00  1.8759334E-04
   7683.50  1.9114728E-04
   7684.00  1.9483203E-04
   7684.50  1.9865507E-04
   7685.00  2.0262452E-04
   7685.50  2.0674911E-04
   7686.00  2.1103834E-04
   7686.50  2.1550249E-04
   7687.00  2.2015275E-04
   7687.50  2.2500130E-04
   7688.00  2.3006146E-04
   7688.50  2.3534778E-04
   7689.00  2.4087623E-04
   7689.50  2.4666433E-04
   7690.00  2.5273144E-04
   7690.50  2.5909891E-04
   7691.00  2.6579040E-04
   7691.50  2.7283223E-04
   7692.00  2.8025373E-04
   7692.50  2.8808771E-04
   7693.00  2.9637101E-04
   7693.50  3.0514517E-04
   7694.00  3.1445718E-04
   7694.50  3.2436049E-04
   7695.00  3.3491615E-04
   7695.50  3.4619426E-04
   7696.00  3.5827574E-04
   7696.50  3.7125461E-04
   7697.00  3.8524081E-04
   7697.50  4.0036379E-04
   7698.00  4.1677721E-04
   7698.50  4.3466503E-04
   7699.00  4.5424956E-04
   7699.50  4.7580234E-04
   7700.00  4.9965893E-04
   7700.50  5.2623949E-04
   7701.00  5.5607793E-04
   7701.50  5.8986423E-04
   7702.00  6.2850734E-04
   7702.50  6.7323140E-04
   7703.00  7.2572809E-04
   7703.50  7.8840708E-04
   7704.00  8.6482676E-04
   7704.50  9.6047598E-04
   7705.00  1.0842865E-03
   7705.50  1.2517968E-03
   7706.00  1.4924272E-03
   7706.50  1.8681946E-03
   7707.00  2.5272776E-03
   7707.10  2.7197581E-03
   7707.20  2.9420075E-03
   7707.30  3.1995343E-03
   7707.40  3.4982959E-03
   7707.50  3.8440272E-03
   7707.60  4.2409163E-03
   7707.70  4.6894905E-03
   7707.80  5.1840353E-03
   7707.90  5.7107447E-03
   7708.00  6.2484384E-03
   7708.10  6.7726866E-03
   7708.20  7.2617865E-03
   7708.30  7.7014478E-03
   7708.40  8.0858111E-03
   7708.50  8.4156370E-03
   7708.60  8.6956025E-03
   7708.70  8.9320449E-03
   7708.80  9.1315487E-03
   7708.90  9.3002348E-03
   7709.00  9.4434866E-03
   7709.10  9.5658986E-03
   7709.20  9.6713199E-03
   7709.30  9.7629314E-03
   7709.40  9.8433323E-03
   7709.50  9.9146327E-03
   7709.60  9.9785484E-03
   7709.70  1.0036499E-02
   7709.80  1.0089698E-02
   7709.90  1.0139235E-02
   7710.00  1.0186135E-02
   7710.10  1.0231396E-02
   7710.20  1.0276009E-02
   7710.30  1.0320951E-02
   7710.40  1.0367170E-02
   7710.50  1.0415565E-02
   7710.60  1.0466963E-02
   7710.70  1.0522099E-02
   7710.80  1.0581606E-02
   7710.90  1.0646008E-02
   7711.00  1.0715716E-02
   7711.10  1.0791031E-02
   7711.20  1.0872150E-02
   7711.30  1.0959176E-02
   7711.40  1.1052127E-02
   7711.50  1.1150947E-02
   7711.60  1.1255518E-02
   7711.70  1.1365666E-02
   7711.80  1.1481180E-02
   7711.90  1.1601810E-02
   7712.00  1.1727285E-02
   7712.10  1.1857315E-02
   7712.20  1.1991597E-02
   7712.30  1.2129823E-02
   7712.40  1.2271685E-02
   7712.50  1.2416875E-02
   7712.60  1.2565088E-02
   7712.70  1.2716029E-02
   7712.80  1.2869410E-02
   7712.90  1.3024954E-02
   7713.00  1.3182391E-02
   7713.10  1.3341468E-02
   7713.20  1.3501941E-02
   7713.30  1.3663578E-02
   7713.40  1.3826162E-02
   7713.50  1.3989487E-02
   7713.60  1.4153360E-02
   7713.70  1.4317600E-02
   7713.80  1.4482040E-02
   7713.90  1.4646522E-02
   7714.00  1.4810902E-02
   7714.10  1.4975043E-02
   7714.20  1.5138821E-02
   7714.30  1.5302121E-02
   7714.40  1.5464836E-02
   7714.50  1.5626869E-02
   7714.60  1.5788129E-02
   7714.70  1.5948535E-02
   7714.80  1.6108011E-02
   7714.90  1.6266488E-02
   7715.00  1.6423904E-02
   7715.10  1.6580201E-02
   7715.20  1.6735329E-02
   7715.30  1.6889239E-02
   7715.40  1.7041890E-02
   7715.50  1.7193244E-02
   7715.60  1.7343267E-02
   7715.70  1.7491929E-02
   7715.80  1.7639203E-02
   7715.90  1.7785067E-02
   7716.00  1.7929501E-02
   7716.10  1.8072488E-02
   7716.20  1.8214017E-02
   7716.30  1.8354075E-02
   7716.40  1.8492657E-02
   7716.50  1.8629757E-02
   7716.60  1.8765374E-02
   7716.70  1.8899508E-02
   7716.80  1.9032163E-02
   7716.90  1.9163342E-02
   7717.00  1.9293053E-02
   7717.10  1.9421305E-02
   7717.20  1.9548108E-02
   7717.30  1.9673473E-02
   7717.40  1.9797414E-02
   7717.50  1.9919944E-02
   7717.60  2.0041078E-02
   7717.70  2.0160832E-02
   7717.80  2.0279221E-02
   7717.90  2.0396262E-02
   7718.00  2.0511973E-02
   7718.10  2.0626372E-02
   7718.20  2.0739476E-02
   7718.30  2.0851307E-02
   7718.40  2.0961883E-02
   7718.50  2.1071227E-02
   7718.60  2.1179358E-02
   7718.70  2.1286297E-02
   7718.80  2.1392061E-02
   7718.90  2.1496667E-02
   7719.00  2.1600127E-02
   7719.50  2.2100425E-02
   7720.00  2.2572551E-02
   7720.50  2.3016925E-02
   7721.00  2.3434434E-02
   7721.50  2.3826439E-02
   7722.00  2.4194821E-02
   7722.50  2.4541889E-02
   7723.00  2.4870125E-02
   7723.50  2.5181899E-02
   7724.00  2.5479228E-02
   7724.50  2.5763577E-02
   7725.00  2.6035688E-02
   7725.50  2.6295517E-02
   7726.00  2.6542291E-02
   7726.50  2.6774633E-02
   7727.00  2.6990755E-02
   7727.50  2.7188705E-02
   7728.00  2.7366634E-02
   7728.50  2.7523050E-02
   7729.00  2.7657032E-02
   7729.50  2.7768374E-02
   7730.00  2.7857643E-02
   7730.50  2.7926164E-02
   7731.00  2.7975922E-02
   7731.50  2.8009413E-02
   7732.00  2.8029469E-02
   7732.50  2.8039069E-02
   7733.00  2.8041163E-02
   7733.50  2.8038512E-02
   7734.00  2.8033573E-02
   7734.50  2.8028402E-02
   7735.00  2.8024603E-02
   7735.50  2.8023300E-02
   7736.00  2.8025138E-02
   7736.50  2.8030307E-02
   7737.00  2.8038580E-02
   7737.50  2.8049365E-02
   7738.00  2.8061772E-02
   7738.50  2.8074673E-02
   7739.00  2.8086782E-02
   7739.50  2.8096724E-02
   7740.00  2.8103104E-02
   7740.50  2.8104575E-02
   7741.00  2.8099897E-02
   7741.50  2.8087986E-02
   7742.00  2.8067952E-02
   7742.50  2.8039130E-02
   7743.00  2.8001092E-02
   7743.50  2.7953650E-02
   7744.00  2.7896850E-02
   7744.50  2.7830950E-02
   7745.00  2.7756405E-02
   7745.50  2.7673829E-02
   7746.00  2.7583974E-02
   7746.50  2.7487697E-02
   7747.00  2.7385933E-02
   7747.50  2.7279670E-02
   7748.00  2.7169923E-02
   7748.50  2.7057720E-02
   7749.00  2.6944077E-02
   7749.50  2.6829989E-02
   7750.00  2.6716410E-02
   7750.50  2.6604248E-02
   7751.00  2.6494348E-02
   7751.50  2.6387492E-02
   7752.00  2.6284388E-02
   7752.50  2.6185673E-02
   7753.00  2.6091910E-02
   7753.50  2.6003595E-02
   7754.00  2.5921163E-02
   7754.50  2.5844995E-02
   7755.00  2.5775434E-02
   7755.50  2.5712790E-02
   7756.00  2.5657356E-02
   7756.50  2.5609421E-02
   7757.00  2.5569277E-02
   7757.50  2.5537226E-02
   7758.00  2.5513592E-02
   7758.50  2.5498714E-02
   7759.00  2.5492949E-02
   7759.50  2.5496664E-02
   7760.00  2.5510227E-02
   7760.50  2.5533992E-02
   7761.00  2.5568283E-02
   7761.50  2.5613380E-02
   7762.00  2.5669497E-02
   7762.50  2.5736764E-02
   7763.00  2.5815215E-02
   7763.50  2.5904771E-02
   7764.00  2.6005232E-02
   7764.50  2.6116269E-02
   7765.00  2.6237423E-02
   7765.50  2.6368108E-02
   7766.00  2.6507616E-02
   7766.50  2.6655124E-02
   7767.00  2.6809711E-02
   7767.50  2.6970368E-02
   7768.00  2.7136020E-02
   7768.50  2.7305538E-02
   7769.00  2.7477760E-02
   7769.50  2.7651509E-02
   7770.00  2.7825608E-02
   7770.50  2.7998903E-02
   7771.00  2.8170267E-02
   7771.50  2.8338627E-02
   7772.00  2.8502962E-02
   7772.50  2.8662323E-02
   7773.00  2.8815835E-02
   7773.50  2.8962704E-02
   7774.00  2.9102218E-02
   7774.50  2.9233750E-02
   7775.00  2.9356755E-02
   7775.50  2.9470768E-02
   7776.00  2.9575400E-02
   7776.50  2.9670331E-02
   7777.00  2.9755305E-02
   7777.50  2.9830120E-02
   7778.00  2.9894629E-02
   7778.50  2.9948725E-02
   7779.00  2.9992342E-02
   7779.50  3.0025448E-02
   7780.00  3.0048042E-02
   7780.50  3.0060153E-02
   7781.00  3.0061841E-02
   7781.50  3.0053193E-02
   7782.00  3.0034330E-02
   7782.50  3.0005402E-02
   7783.00  2.9966599E-02
   7783.50  2.9918144E-02
   7784.00  2.9860305E-02
   7784.50  2.9793387E-02
   7785.00  2.9717743E-02
   7785.50  2.9633768E-02
   7786.00  2.9541903E-02
   7786.50  2.9442632E-02
   7787.00  2.9336484E-02
   7787.50  2.9224027E-02
   7788.00  2.9105870E-02
   7788.50  2.8982654E-02
   7789.00  2.8855053E-02
   7789.50  2.8723763E-02
   7790.00  2.8589502E-02
   7790.50  2.8452999E-02
   7791.00  2.8314986E-02
   7791.50  2.8176194E-02
   7792.00  2.8037342E-02
   7792.50  2.7899132E-02
   7793.00  2.7762236E-02
   7793.50  2.7627298E-02
   7794.00  2.7494919E-02
   7794.50  2.7365663E-02
   7795.00  2.7240046E-02
   7795.50  2.7118543E-02
   7796.00  2.7001586E-02
   7796.50  2.6889568E-02
   7797.00  2.6782847E-02
   7797.50  2.6681752E-02
   7798.00  2.6586586E-02
   7798.50  2.6497634E-02
   7799.00  2.6415164E-02
   7799.50  2.6339429E-02
   7800.00  2.6270672E-02
   7800.50  2.6209122E-02
   7801.00  2.6154992E-02
   7801.50  2.6108482E-02
   7802.00  2.6069766E-02
   7802.50  2.6038997E-02
   7803.00  2.6016299E-02
   7803.50  2.6001762E-02
   7804.00  2.5995442E-02
   7804.50  2.5997355E-02
   7805.00  2.6007478E-02
   7805.50  2.6025748E-02
   7806.00  2.6052061E-02
   7806.50  2.6086269E-02
   7807.00  2.6128187E-02
   7807.50  2.6177591E-02
   7808.00  2.6234220E-02
   7808.50  2.6297777E-02
   7809.00  2.6367931E-02
   7809.50  2.6444321E-02
   7810.00  2.6526555E-02
   7810.50  2.6614215E-02
   7811.00  2.6706854E-02
   7811.50  2.6804004E-02
   7812.00  2.6905171E-02
   7812.50  2.7009842E-02
   7813.00  2.7117485E-02
   7813.50  2.7227552E-02
   7814.00  2.7339479E-02
   7814.50  2.7452691E-02
   7815.00  2.7566605E-02
   7815.50  2.7680631E-02
   7816.00  2.7794179E-02
   7816.50  2.7906661E-02
   7817.00  2.8017497E-02
   7817.50  2.8126118E-02
   7818.00  2.8231977E-02
   7818.50  2.8334546E-02
   7819.00  2.8433330E-02
   7819.50  2.8527872E-02
   7820.00  2.8617753E-02
   7820.50  2.8702605E-02
   7821.00  2.8782113E-02
   7821.50  2.8856020E-02
   7822.00  2.8924132E-02
   7822.50  2.8986320E-02
   7823.00  2.9042521E-02
   7823.50  2.9092740E-02
   7824.00  2.9137046E-02
   7824.50  2.9175575E-02
   7825.00  2.9208517E-02
   7825.50  2.9236117E-02
   7826.00  2.9258667E-02
   7826.50  2.9276494E-02
   7827.00  2.9289955E-02
   7827.50  2.9299425E-02
   7828.00  2.9305285E-02
   7828.50  2.9307915E-02
   7829.00  2.9307684E-02
   7829.50  2.9304939E-02
   7830.00  2.9299993E-02
   7830.50  2.9293127E-02
   7831.00  2.9284573E-02
   7831.50  2.9274518E-02
   7832.00  2.9263094E-02
   7832.50  2.9250379E-02
   7833.00  2.9236397E-02
   7833.50  2.9221119E-02
   7834.00  2.9204462E-02
   7834.50  2.9186297E-02
   7835.00  2.9166450E-02
   7835.50  2.9144708E-02
   7836.00  2.9120827E-02
   7836.50  2.9094536E-02
   7837.00  2.9065547E-02
   7837.50  2.9033557E-02
   7838.00  2.8998264E-02
   7838.50  2.8959367E-02
   7839.00  2.8916575E-02
   7839.50  2.8869618E-02
   7840.00  2.8818249E-02
   7840.50  2.8762254E-02
   7841.00  2.8701455E-02
   7841.50  2.8635717E-02
   7842.00  2.8564953E-02
   7842.50  2.8489126E-02
   7843.00  2.8408253E-02
   7843.50  2.8322409E-02
   7844.00  2.8231725E-02
   7844.50  2.8136388E-02
   7845.00  2.8036644E-02
   7845.50  2.7932793E-02
   7846.00  2.7825187E-02
   7846.50  2.7714226E-02
   7847.00  2.7600352E-02
   7847.50  2.7484047E-02
   7848.00  2.7365820E-02
   7848.50  2.7246207E-02
   7849.00  2.7125758E-02
   7849.50  2.7005030E-02
   7850.00  2.6884579E-02
   7850.50  2.6764954E-02
   7851.00  2.6646684E-02
   7851.50  2.6530274E-02
   7852.00  2.6416196E-02
   7852.50  2.6304884E-02
   7853.00  2.6196728E-02
   7853.50  2.6092069E-02
   7854.00  2.5991194E-02
   7854.50  2.5894339E-02
   7855.00  2.5801680E-02
   7855.50  2.5713341E-02
   7856.00  2.5629391E-02
   7856.50  2.5549845E-02
   7857.00  2.5474672E-02
   7857.50  2.5403799E-02
   7858.00  2.5337112E-02
   7858.50  2.5274468E-02
   7859.00  2.5215697E-02
