    Energy      s          Int(s)         px           py           pz           p          Int(p)       dx2-y2        dz2          dyz          dxz          dxy           d          Int(d)       total      Int(total) 
  -50.0000  4.48566E-03  3.29690E-05  6.73810E-02  6.73810E-02  6.73810E-02  2.02143E-01  1.48572E-03  2.77336E-03  2.81655E-03  2.73017E-03  2.73017E-03  2.77336E-03  1.38236E-02  1.01602E-04  2.20452E-01  1.62029E-03
  -49.9000  4.46647E-03  6.57969E-05  6.58270E-02  6.58270E-02  6.58270E-02  1.97481E-01  2.93718E-03  2.77715E-03  2.81779E-03  2.73652E-03  2.73652E-03  2.77715E-03  1.38451E-02  2.03362E-04  2.15793E-01  3.20634E-03
  -49.8000  4.44844E-03  9.84923E-05  6.43275E-02  6.43275E-02  6.43275E-02  1.92983E-01  4.35558E-03  2.78153E-03  2.81985E-03  2.74321E-03  2.74321E-03  2.78153E-03  1.38693E-02  3.05299E-04  2.11300E-01  4.75937E-03
  -49.7000  4.43145E-03  1.31063E-04  6.28802E-02  6.28802E-02  6.28802E-02  1.88641E-01  5.74206E-03  2.78642E-03  2.82263E-03  2.75021E-03  2.75021E-03  2.78642E-03  1.38959E-02  4.07432E-04  2.06968E-01  6.28056E-03
  -49.6000  4.41540E-03  1.63515E-04  6.14830E-02  6.14830E-02  6.14830E-02  1.84449E-01  7.09774E-03  2.79177E-03  2.82606E-03  2.75749E-03  2.75749E-03  2.79177E-03  1.39246E-02  5.09776E-04  2.02789E-01  7.77103E-03
  -49.5000  4.40020E-03  1.95856E-04  6.01333E-02  6.01333E-02  6.01333E-02  1.80400E-01  8.42365E-03  2.79755E-03  2.83007E-03  2.76503E-03  2.76503E-03  2.79755E-03  1.39552E-02  6.12345E-04  1.98755E-01  9.23185E-03
  -49.4000  4.38577E-03  2.28091E-04  5.88288E-02  5.88288E-02  5.88288E-02  1.76487E-01  9.72080E-03  2.80370E-03  2.83461E-03  2.77280E-03  2.77280E-03  2.80370E-03  1.39876E-02  7.15152E-04  1.94860E-01  1.06640E-02
  -49.3000  4.37204E-03  2.60225E-04  5.75677E-02  5.75677E-02  5.75677E-02  1.72703E-01  1.09901E-02  2.81021E-03  2.83963E-03  2.78079E-03  2.78079E-03  2.81021E-03  1.40216E-02  8.18209E-04  1.91097E-01  1.20686E-02
  -49.2000  4.35894E-03  2.92263E-04  5.63480E-02  5.63480E-02  5.63480E-02  1.69044E-01  1.22326E-02  2.81703E-03  2.84509E-03  2.78897E-03  2.78897E-03  2.81703E-03  1.40571E-02  9.21527E-04  1.87460E-01  1.34464E-02
  -49.1000  4.34643E-03  3.24208E-04  5.51678E-02  5.51678E-02  5.51678E-02  1.65503E-01  1.34490E-02  2.82415E-03  2.85094E-03  2.79735E-03  2.79735E-03  2.82415E-03  1.40939E-02  1.02512E-03  1.83944E-01  1.47983E-02
  -49.0000  4.33447E-03  3.56066E-04  5.40255E-02  5.40255E-02  5.40255E-02  1.62076E-01  1.46403E-02  2.83153E-03  2.85716E-03  2.80590E-03  2.80590E-03  2.83153E-03  1.41320E-02  1.12898E-03  1.80543E-01  1.61253E-02
  -48.9000  4.32300E-03  3.87840E-04  5.29194E-02  5.29194E-02  5.29194E-02  1.58758E-01  1.58071E-02  2.83917E-03  2.86372E-03  2.81462E-03  2.81462E-03  2.83917E-03  1.41713E-02  1.23314E-03  1.77253E-01  1.74281E-02
  -48.8000  4.31200E-03  4.19532E-04  5.18481E-02  5.18481E-02  5.18481E-02  1.55544E-01  1.69503E-02  2.84704E-03  2.87059E-03  2.82349E-03  2.82349E-03  2.84704E-03  1.42116E-02  1.33759E-03  1.74068E-01  1.87075E-02
  -48.7000  4.30142E-03  4.51147E-04  5.08101E-02  5.08101E-02  5.08101E-02  1.52430E-01  1.80707E-02  2.85512E-03  2.87774E-03  2.83251E-03  2.83251E-03  2.85512E-03  1.42530E-02  1.44235E-03  1.70985E-01  1.99642E-02
  -48.6000  4.29125E-03  4.82687E-04  4.98040E-02  4.98040E-02  4.98040E-02  1.49412E-01  1.91688E-02  2.86342E-03  2.88517E-03  2.84166E-03  2.84166E-03  2.86342E-03  1.42953E-02  1.54742E-03  1.67999E-01  2.11990E-02
  -48.5000  4.28146E-03  5.14155E-04  4.88285E-02  4.88285E-02  4.88285E-02  1.46485E-01  2.02455E-02  2.87190E-03  2.89284E-03  2.85095E-03  2.85095E-03  2.87190E-03  1.43385E-02  1.65281E-03  1.65105E-01  2.24125E-02
  -48.4000  4.27202E-03  5.45554E-04  4.78824E-02  4.78824E-02  4.78824E-02  1.43647E-01  2.13013E-02  2.88056E-03  2.90076E-03  2.86037E-03  2.86037E-03  2.88056E-03  1.43826E-02  1.75852E-03  1.62302E-01  2.36054E-02
  -48.3000  4.26291E-03  5.76886E-04  4.69645E-02  4.69645E-02  4.69645E-02  1.40894E-01  2.23368E-02  2.88940E-03  2.90889E-03  2.86991E-03  2.86991E-03  2.88940E-03  1.44275E-02  1.86456E-03  1.59584E-01  2.47783E-02
  -48.2000  4.25412E-03  6.08153E-04  4.60738E-02  4.60738E-02  4.60738E-02  1.38221E-01  2.33527E-02  2.89840E-03  2.91723E-03  2.87957E-03  2.87957E-03  2.89840E-03  1.44732E-02  1.97093E-03  1.56949E-01  2.59318E-02
  -48.1000  4.24563E-03  6.39358E-04  4.52091E-02  4.52091E-02  4.52091E-02  1.35627E-01  2.43496E-02  2.90755E-03  2.92577E-03  2.88934E-03  2.88934E-03  2.90755E-03  1.45196E-02  2.07765E-03  1.54392E-01  2.70666E-02
  -48.0000  4.23742E-03  6.70502E-04  4.43694E-02  4.43694E-02  4.43694E-02  1.33108E-01  2.53279E-02  2.91686E-03  2.93449E-03  2.89923E-03  2.89923E-03  2.91686E-03  1.45667E-02  2.18471E-03  1.51912E-01  2.81831E-02
  -47.9000  4.22948E-03  7.01588E-04  4.35539E-02  4.35539E-02  4.35539E-02  1.30662E-01  2.62882E-02  2.92631E-03  2.94340E-03  2.90922E-03  2.90922E-03  2.92631E-03  1.46144E-02  2.29213E-03  1.49506E-01  2.92820E-02
  -47.8000  4.22180E-03  7.32618E-04  4.27616E-02  4.27616E-02  4.27616E-02  1.28285E-01  2.72311E-02  2.93589E-03  2.95247E-03  2.91931E-03  2.91931E-03  2.93589E-03  1.46629E-02  2.39990E-03  1.47169E-01  3.03636E-02
  -47.7000  4.21437E-03  7.63593E-04  4.19916E-02  4.19916E-02  4.19916E-02  1.25975E-01  2.81570E-02  2.94561E-03  2.96171E-03  2.92951E-03  2.92951E-03  2.94561E-03  1.47119E-02  2.50803E-03  1.44901E-01  3.14286E-02
  -47.6000  4.20718E-03  7.94515E-04  4.12432E-02  4.12432E-02  4.12432E-02  1.23730E-01  2.90664E-02  2.95545E-03  2.97110E-03  2.93981E-03  2.93981E-03  2.95545E-03  1.47616E-02  2.61652E-03  1.42698E-01  3.24775E-02
  -47.5000  4.20022E-03  8.25386E-04  4.05158E-02  4.05158E-02  4.05158E-02  1.21548E-01  2.99598E-02  2.96541E-03  2.98063E-03  2.95020E-03  2.95020E-03  2.96541E-03  1.48119E-02  2.72539E-03  1.40560E-01  3.35106E-02
  -47.4000  4.19347E-03  8.56208E-04  3.98083E-02  3.98083E-02  3.98083E-02  1.19425E-01  3.08375E-02  2.97550E-03  2.99032E-03  2.96068E-03  2.96068E-03  2.97550E-03  1.48627E-02  2.83463E-03  1.38481E-01  3.45284E-02
  -47.3000  4.18694E-03  8.86981E-04  3.91201E-02  3.91201E-02  3.91201E-02  1.17360E-01  3.17001E-02  2.98570E-03  3.00014E-03  2.97126E-03  2.97126E-03  2.98570E-03  1.49141E-02  2.94424E-03  1.36461E-01  3.55313E-02
  -47.2000  4.18061E-03  9.17708E-04  3.84504E-02  3.84504E-02  3.84504E-02  1.15351E-01  3.25479E-02  2.99602E-03  3.01010E-03  2.98194E-03  2.98194E-03  2.99602E-03  1.49660E-02  3.05424E-03  1.34498E-01  3.65199E-02
  -47.1000  4.17448E-03  9.48390E-04  3.77986E-02  3.77986E-02  3.77986E-02  1.13396E-01  3.33814E-02  3.00645E-03  3.02019E-03  2.99271E-03  2.99271E-03  3.00645E-03  1.50185E-02  3.16463E-03  1.32589E-01  3.74944E-02
  -47.0000  4.16854E-03  9.79028E-04  3.71640E-02  3.71640E-02  3.71640E-02  1.11492E-01  3.42008E-02  3.01699E-03  3.03040E-03  3.00357E-03  3.00357E-03  3.01699E-03  1.50715E-02  3.27540E-03  1.30732E-01  3.84553E-02
  -46.9000  4.16279E-03  1.00962E-03  3.65460E-02  3.65460E-02  3.65460E-02  1.09638E-01  3.50066E-02  3.02763E-03  3.04075E-03  3.01452E-03  3.01452E-03  3.02763E-03  1.51251E-02  3.38657E-03  1.28926E-01  3.94028E-02
  -46.8000  4.15722E-03  1.04018E-03  3.59441E-02  3.59441E-02  3.59441E-02  1.07832E-01  3.57992E-02  3.03839E-03  3.05122E-03  3.02556E-03  3.02556E-03  3.03839E-03  1.51791E-02  3.49813E-03  1.27169E-01  4.03375E-02
  -46.7000  4.15182E-03  1.07069E-03  3.53576E-02  3.53576E-02  3.53576E-02  1.06073E-01  3.65788E-02  3.04925E-03  3.06180E-03  3.03669E-03  3.03669E-03  3.04925E-03  1.52337E-02  3.61010E-03  1.25458E-01  4.12596E-02
  -46.6000  4.14660E-03  1.10117E-03  3.47862E-02  3.47862E-02  3.47862E-02  1.04359E-01  3.73458E-02  3.06021E-03  3.07251E-03  3.04792E-03  3.04792E-03  3.06021E-03  1.52888E-02  3.72247E-03  1.23794E-01  4.21695E-02
  -46.5000  4.14154E-03  1.13161E-03  3.42292E-02  3.42292E-02  3.42292E-02  1.02688E-01  3.81006E-02  3.07128E-03  3.08333E-03  3.05923E-03  3.05923E-03  3.07128E-03  1.53443E-02  3.83525E-03  1.22174E-01  4.30674E-02
  -46.4000  4.13665E-03  1.16202E-03  3.36863E-02  3.36863E-02  3.36863E-02  1.01059E-01  3.88434E-02  3.08244E-03  3.09426E-03  3.07063E-03  3.07063E-03  3.08244E-03  1.54004E-02  3.94844E-03  1.20596E-01  4.39538E-02
  -46.3000  4.13192E-03  1.19238E-03  3.31569E-02  3.31569E-02  3.31569E-02  9.94707E-02  3.95744E-02  3.09371E-03  3.10531E-03  3.08211E-03  3.08211E-03  3.09371E-03  1.54570E-02  4.06204E-03  1.19060E-01  4.48289E-02
  -46.2000  4.12735E-03  1.22272E-03  3.26406E-02  3.26406E-02  3.26406E-02  9.79217E-02  4.02942E-02  3.10508E-03  3.11646E-03  3.09369E-03  3.09369E-03  3.10508E-03  1.55140E-02  4.17607E-03  1.17563E-01  4.56930E-02
  -46.1000  4.12293E-03  1.25302E-03  3.21370E-02  3.21370E-02  3.21370E-02  9.64109E-02  4.10028E-02  3.11654E-03  3.12773E-03  3.10535E-03  3.10535E-03  3.11654E-03  1.55715E-02  4.29052E-03  1.16105E-01  4.65463E-02
  -46.0000  4.11866E-03  1.28329E-03  3.16456E-02  3.16456E-02  3.16456E-02  9.49368E-02  4.17005E-02  3.12810E-03  3.13910E-03  3.11711E-03  3.11711E-03  3.12810E-03  1.56295E-02  4.40539E-03  1.14685E-01  4.73892E-02
  -45.9000  4.11454E-03  1.31354E-03  3.11661E-02  3.11661E-02  3.11661E-02  9.34984E-02  4.23877E-02  3.13976E-03  3.15058E-03  3.12895E-03  3.12895E-03  3.13976E-03  1.56880E-02  4.52070E-03  1.13301E-01  4.82220E-02
  -45.8000  4.11057E-03  1.34375E-03  3.06982E-02  3.06982E-02  3.06982E-02  9.20946E-02  4.30646E-02  3.15152E-03  3.16217E-03  3.14087E-03  3.14087E-03  3.15152E-03  1.57470E-02  4.63644E-03  1.11952E-01  4.90448E-02
  -45.7000  4.10674E-03  1.37393E-03  3.02414E-02  3.02414E-02  3.02414E-02  9.07243E-02  4.37314E-02  3.16337E-03  3.17386E-03  3.15289E-03  3.15289E-03  3.16337E-03  1.58064E-02  4.75261E-03  1.10637E-01  4.98580E-02
  -45.6000  4.10306E-03  1.40409E-03  2.97954E-02  2.97954E-02  2.97954E-02  8.93863E-02  4.43884E-02  3.17532E-03  3.18565E-03  3.16499E-03  3.16499E-03  3.17532E-03  1.58663E-02  4.86923E-03  1.09356E-01  5.06617E-02
  -45.5000  4.09951E-03  1.43422E-03  2.93600E-02  2.93600E-02  2.93600E-02  8.80799E-02  4.50358E-02  3.18737E-03  3.19755E-03  3.17719E-03  3.17719E-03  3.18737E-03  1.59267E-02  4.98628E-03  1.08106E-01  5.14563E-02
  -45.4000  4.09611E-03  1.46433E-03  2.89347E-02  2.89347E-02  2.89347E-02  8.68041E-02  4.56738E-02  3.19950E-03  3.20954E-03  3.18946E-03  3.18946E-03  3.19950E-03  1.59875E-02  5.10379E-03  1.06888E-01  5.22419E-02
  -45.3000  4.09284E-03  1.49441E-03  2.85192E-02  2.85192E-02  2.85192E-02  8.55577E-02  4.63026E-02  3.21174E-03  3.22165E-03  3.20183E-03  3.20183E-03  3.21174E-03  1.60488E-02  5.22175E-03  1.05699E-01  5.30188E-02
  -45.2000  4.08971E-03  1.52447E-03  2.81134E-02  2.81134E-02  2.81134E-02  8.43402E-02  4.69225E-02  3.22407E-03  3.23385E-03  3.21429E-03  3.21429E-03  3.22407E-03  1.61106E-02  5.34016E-03  1.04540E-01  5.37871E-02
  -45.1000  4.08671E-03  1.55450E-03  2.77168E-02  2.77168E-02  2.77168E-02  8.31503E-02  4.75337E-02  3.23649E-03  3.24615E-03  3.22683E-03  3.22683E-03  3.23649E-03  1.61728E-02  5.45902E-03  1.03410E-01  5.45472E-02
  -45.0000  4.08384E-03  1.58452E-03  2.73293E-02  2.73293E-02  2.73293E-02  8.19878E-02  4.81363E-02  3.24901E-03  3.25855E-03  3.23946E-03  3.23946E-03  3.24901E-03  1.62355E-02  5.57835E-03  1.02307E-01  5.52991E-02
  -44.9000  4.08111E-03  1.61451E-03  2.69504E-02  2.69504E-02  2.69504E-02  8.08513E-02  4.87305E-02  3.26162E-03  3.27105E-03  3.25218E-03  3.25218E-03  3.26162E-03  1.62987E-02  5.69815E-03  1.01231E-01  5.60432E-02
  -44.8000  4.07850E-03  1.64449E-03  2.65800E-02  2.65800E-02  2.65800E-02  7.97401E-02  4.93166E-02  3.27433E-03  3.28365E-03  3.26500E-03  3.26500E-03  3.27433E-03  1.63623E-02  5.81841E-03  1.00181E-01  5.67795E-02
  -44.7000  4.07602E-03  1.67445E-03  2.62179E-02  2.62179E-02  2.62179E-02  7.86536E-02  4.98947E-02  3.28713E-03  3.29636E-03  3.27790E-03  3.27790E-03  3.28713E-03  1.64264E-02  5.93914E-03  9.91560E-02  5.75083E-02
  -44.6000  4.07367E-03  1.70439E-03  2.58636E-02  2.58636E-02  2.58636E-02  7.75909E-02  5.04650E-02  3.30003E-03  3.30917E-03  3.29090E-03  3.29090E-03  3.30003E-03  1.64910E-02  6.06035E-03  9.81556E-02  5.82297E-02
  -44.5000  4.07145E-03  1.73431E-03  2.55172E-02  2.55172E-02  2.55172E-02  7.65515E-02  5.10276E-02  3.31303E-03  3.32208E-03  3.30399E-03  3.30399E-03  3.31303E-03  1.65561E-02  6.18203E-03  9.71791E-02  5.89439E-02
  -44.4000  4.06935E-03  1.76422E-03  2.51782E-02  2.51782E-02  2.51782E-02  7.55346E-02  5.15828E-02  3.32613E-03  3.33509E-03  3.31717E-03  3.31717E-03  3.32613E-03  1.66217E-02  6.30420E-03  9.62257E-02  5.96512E-02
  -44.3000  4.06738E-03  1.79412E-03  2.48466E-02  2.48466E-02  2.48466E-02  7.45397E-02  5.21306E-02  3.33932E-03  3.34820E-03  3.33044E-03  3.33044E-03  3.33932E-03  1.66877E-02  6.42685E-03  9.52948E-02  6.03516E-02
  -44.2000  4.06553E-03  1.82400E-03  2.45220E-02  2.45220E-02  2.45220E-02  7.35661E-02  5.26713E-02  3.35261E-03  3.36142E-03  3.34381E-03  3.34381E-03  3.35261E-03  1.67543E-02  6.54999E-03  9.43859E-02  6.10453E-02
  -44.1000  4.06380E-03  1.85387E-03  2.42044E-02  2.42044E-02  2.42044E-02  7.26132E-02  5.32050E-02  3.36600E-03  3.37473E-03  3.35727E-03  3.35727E-03  3.36600E-03  1.68213E-02  6.67363E-03  9.34983E-02  6.17325E-02
  -44.0000  4.06219E-03  1.88372E-03  2.38935E-02  2.38935E-02  2.38935E-02  7.16805E-02  5.37319E-02  3.37949E-03  3.38815E-03  3.37083E-03  3.37083E-03  3.37949E-03  1.68888E-02  6.79776E-03  9.26315E-02  6.24133E-02
  -43.9000  4.06071E-03  1.91357E-03  2.35891E-02  2.35891E-02  2.35891E-02  7.07674E-02  5.42520E-02  3.39308E-03  3.40168E-03  3.38449E-03  3.38449E-03  3.39308E-03  1.69568E-02  6.92239E-03  9.17849E-02  6.30880E-02
  -43.8000  4.05935E-03  1.94341E-03  2.32911E-02  2.32911E-02  2.32911E-02  6.98734E-02  5.47656E-02  3.40677E-03  3.41530E-03  3.39824E-03  3.39824E-03  3.40677E-03  1.70253E-02  7.04752E-03  9.09581E-02  6.37565E-02
  -43.7000  4.05811E-03  1.97323E-03  2.29993E-02  2.29993E-02  2.29993E-02  6.89980E-02  5.52727E-02  3.42056E-03  3.42903E-03  3.41209E-03  3.41209E-03  3.42056E-03  1.70943E-02  7.17316E-03  9.01504E-02  6.44191E-02
  -43.6000  4.05699E-03  2.00305E-03  2.27136E-02  2.27136E-02  2.27136E-02  6.81407E-02  5.57735E-02  3.43445E-03  3.44287E-03  3.42603E-03  3.42603E-03  3.43445E-03  1.71638E-02  7.29931E-03  8.93615E-02  6.50759E-02
  -43.5000  4.05598E-03  2.03286E-03  2.24336E-02  2.24336E-02  2.24336E-02  6.73009E-02  5.62682E-02  3.44844E-03  3.45681E-03  3.44008E-03  3.44008E-03  3.44844E-03  1.72338E-02  7.42598E-03  8.85907E-02  6.57270E-02
  -43.4000  4.05510E-03  2.06267E-03  2.21594E-02  2.21594E-02  2.21594E-02  6.64783E-02  5.67568E-02  3.46253E-03  3.47085E-03  3.45422E-03  3.45422E-03  3.46253E-03  1.73044E-02  7.55317E-03  8.78378E-02  6.63726E-02
  -43.3000  4.05434E-03  2.09246E-03  2.18908E-02  2.18908E-02  2.18908E-02  6.56725E-02  5.72394E-02  3.47673E-03  3.48500E-03  3.46846E-03  3.46846E-03  3.47673E-03  1.73754E-02  7.68087E-03  8.71022E-02  6.70128E-02
  -43.2000  4.05369E-03  2.12226E-03  2.16276E-02  2.16276E-02  2.16276E-02  6.48828E-02  5.77163E-02  3.49103E-03  3.49925E-03  3.48281E-03  3.48281E-03  3.49103E-03  1.74469E-02  7.80910E-03  8.63835E-02  6.76477E-02
  -43.1000  4.05317E-03  2.15205E-03  2.13697E-02  2.13697E-02  2.13697E-02  6.41090E-02  5.81875E-02  3.50543E-03  3.51361E-03  3.49725E-03  3.49725E-03  3.50543E-03  1.75190E-02  7.93787E-03  8.56812E-02  6.82774E-02
  -43.0000  4.05276E-03  2.18184E-03  2.11168E-02  2.11168E-02  2.11168E-02  6.33505E-02  5.86531E-02  3.51994E-03  3.52809E-03  3.51180E-03  3.51180E-03  3.51994E-03  1.75916E-02  8.06716E-03  8.49948E-02  6.89021E-02
  -42.9000  4.05246E-03  2.21162E-03  2.08690E-02  2.08690E-02  2.08690E-02  6.26071E-02  5.91133E-02  3.53456E-03  3.54267E-03  3.52645E-03  3.52645E-03  3.53456E-03  1.76647E-02  8.19700E-03  8.43242E-02  6.95219E-02
  -42.8000  4.05229E-03  2.24140E-03  2.06261E-02  2.06261E-02  2.06261E-02  6.18784E-02  5.95681E-02  3.54928E-03  3.55735E-03  3.54120E-03  3.54120E-03  3.54928E-03  1.77383E-02  8.32737E-03  8.36690E-02  7.01369E-02
  -42.7000  4.05223E-03  2.27119E-03  2.03880E-02  2.03880E-02  2.03880E-02  6.11641E-02  6.00176E-02  3.56410E-03  3.57214E-03  3.55606E-03  3.55606E-03  3.56410E-03  1.78125E-02  8.45829E-03  8.30288E-02  7.07471E-02
  -42.6000  4.05229E-03  2.30097E-03  2.01545E-02  2.01545E-02  2.01545E-02  6.04636E-02  6.04620E-02  3.57904E-03  3.58705E-03  3.57102E-03  3.57102E-03  3.57904E-03  1.78872E-02  8.58976E-03  8.24031E-02  7.13528E-02
  -42.5000  4.05247E-03  2.33076E-03  1.99256E-02  1.99256E-02  1.99256E-02  5.97767E-02  6.09014E-02  3.59408E-03  3.60206E-03  3.58609E-03  3.58609E-03  3.59408E-03  1.79624E-02  8.72178E-03  8.17916E-02  7.19539E-02
  -42.4000  4.05276E-03  2.36054E-03  1.97010E-02  1.97010E-02  1.97010E-02  5.91030E-02  6.13358E-02  3.60923E-03  3.61719E-03  3.60127E-03  3.60127E-03  3.60923E-03  1.80382E-02  8.85436E-03  8.11939E-02  7.25507E-02
  -42.3000  4.05317E-03  2.39033E-03  1.94807E-02  1.94807E-02  1.94807E-02  5.84422E-02  6.17653E-02  3.62449E-03  3.63243E-03  3.61656E-03  3.61656E-03  3.62449E-03  1.81145E-02  8.98750E-03  8.06099E-02  7.31432E-02
  -42.2000  4.05369E-03  2.42013E-03  1.92647E-02  1.92647E-02  1.92647E-02  5.77940E-02  6.21901E-02  3.63987E-03  3.64779E-03  3.63195E-03  3.63195E-03  3.63987E-03  1.81914E-02  9.12120E-03  8.00391E-02  7.37314E-02
  -42.1000  4.05433E-03  2.44993E-03  1.90527E-02  1.90527E-02  1.90527E-02  5.71580E-02  6.26102E-02  3.65536E-03  3.66325E-03  3.64746E-03  3.64746E-03  3.65536E-03  1.82689E-02  9.25547E-03  7.94812E-02  7.43156E-02
  -42.0000  4.05509E-03  2.47973E-03  1.88447E-02  1.88447E-02  1.88447E-02  5.65341E-02  6.30257E-02  3.67096E-03  3.67884E-03  3.66308E-03  3.66308E-03  3.67096E-03  1.83469E-02  9.39032E-03  7.89361E-02  7.48958E-02
  -41.9000  4.05596E-03  2.50954E-03  1.86406E-02  1.86406E-02  1.86406E-02  5.59219E-02  6.34367E-02  3.68667E-03  3.69454E-03  3.67881E-03  3.67881E-03  3.68667E-03  1.84255E-02  9.52575E-03  7.84033E-02  7.54720E-02
  -41.8000  4.05695E-03  2.53936E-03  1.84403E-02  1.84403E-02  1.84403E-02  5.53210E-02  6.38433E-02  3.70250E-03  3.71036E-03  3.69465E-03  3.69465E-03  3.70250E-03  1.85047E-02  9.66175E-03  7.78827E-02  7.60445E-02
  -41.7000  4.05806E-03  2.56919E-03  1.82438E-02  1.82438E-02  1.82438E-02  5.47314E-02  6.42456E-02  3.71845E-03  3.72629E-03  3.71061E-03  3.71061E-03  3.71845E-03  1.85844E-02  9.79835E-03  7.73738E-02  7.66132E-02
  -41.6000  4.05928E-03  2.59902E-03  1.80509E-02  1.80509E-02  1.80509E-02  5.41526E-02  6.46436E-02  3.73451E-03  3.74234E-03  3.72668E-03  3.72668E-03  3.73451E-03  1.86647E-02  9.93553E-03  7.68766E-02  7.71782E-02
  -41.5000  4.06062E-03  2.62887E-03  1.78615E-02  1.78615E-02  1.78615E-02  5.35845E-02  6.50375E-02  3.75070E-03  3.75852E-03  3.74287E-03  3.74287E-03  3.75070E-03  1.87457E-02  1.00733E-02  7.63907E-02  7.77396E-02
  -41.4000  4.06208E-03  2.65872E-03  1.76756E-02  1.76756E-02  1.76756E-02  5.30268E-02  6.54272E-02  3.76700E-03  3.77481E-03  3.75918E-03  3.75918E-03  3.76700E-03  1.88272E-02  1.02117E-02  7.59160E-02  7.82976E-02
  -41.3000  4.06366E-03  2.68859E-03  1.74931E-02  1.74931E-02  1.74931E-02  5.24792E-02  6.58129E-02  3.78342E-03  3.79123E-03  3.77560E-03  3.77560E-03  3.78342E-03  1.89093E-02  1.03507E-02  7.54521E-02  7.88522E-02
  -41.2000  4.06535E-03  2.71847E-03  1.73139E-02  1.73139E-02  1.73139E-02  5.19416E-02  6.61947E-02  3.79996E-03  3.80777E-03  3.79215E-03  3.79215E-03  3.79996E-03  1.89920E-02  1.04903E-02  7.49989E-02  7.94034E-02
  -41.1000  4.06715E-03  2.74836E-03  1.71379E-02  1.71379E-02  1.71379E-02  5.14136E-02  6.65726E-02  3.81662E-03  3.82443E-03  3.80882E-03  3.80882E-03  3.81662E-03  1.90753E-02  1.06305E-02  7.45561E-02  7.99514E-02
