    Energy      s          Int(s)         px           py           pz           p          Int(p)       dx2-y2        dz2          dyz          dxz          dxy           d          Int(d)       total      Int(total) 
  -50.0000  3.47518E-03  2.55421E-05  2.35089E-02  2.35089E-02  2.35089E-02  7.05266E-02  5.18361E-04  2.73339E-03  2.75589E-03  2.71090E-03  2.71090E-03  2.73339E-03  1.36445E-02  1.00285E-04  8.76463E-02  6.44188E-04
  -49.9000  3.46545E-03  5.10127E-05  2.32000E-02  2.32000E-02  2.32000E-02  6.95999E-02  1.02991E-03  2.73984E-03  2.76107E-03  2.71860E-03  2.71860E-03  2.73984E-03  1.36779E-02  2.00816E-04  8.67433E-02  1.28174E-03
  -49.8000  3.45644E-03  7.64171E-05  2.28979E-02  2.28979E-02  2.28979E-02  6.86937E-02  1.53480E-03  2.74664E-03  2.76673E-03  2.72655E-03  2.72655E-03  2.74664E-03  1.37131E-02  3.01605E-04  8.58632E-02  1.91282E-03
  -49.7000  3.44807E-03  1.01760E-04  2.26024E-02  2.26024E-02  2.26024E-02  6.78072E-02  2.03317E-03  2.75376E-03  2.77281E-03  2.73471E-03  2.73471E-03  2.75376E-03  1.37498E-02  4.02664E-04  8.50051E-02  2.53760E-03
  -49.6000  3.44028E-03  1.27045E-04  2.23133E-02  2.23133E-02  2.23133E-02  6.69399E-02  2.52517E-03  2.76118E-03  2.77927E-03  2.74308E-03  2.74308E-03  2.76118E-03  1.37878E-02  5.04003E-04  8.41680E-02  3.15622E-03
  -49.5000  3.43301E-03  1.52278E-04  2.20303E-02  2.20303E-02  2.20303E-02  6.60910E-02  3.01093E-03  2.76886E-03  2.78609E-03  2.75164E-03  2.75164E-03  2.76886E-03  1.38271E-02  6.05630E-04  8.33511E-02  3.76884E-03
  -49.4000  3.42623E-03  1.77460E-04  2.17534E-02  2.17534E-02  2.17534E-02  6.52601E-02  3.49059E-03  2.77680E-03  2.79322E-03  2.76037E-03  2.76037E-03  2.77680E-03  1.38676E-02  7.07555E-04  8.25538E-02  4.37560E-03
  -49.3000  3.41988E-03  2.02596E-04  2.14822E-02  2.14822E-02  2.14822E-02  6.44466E-02  3.96426E-03  2.78495E-03  2.80065E-03  2.76926E-03  2.76926E-03  2.78495E-03  1.39091E-02  8.09785E-04  8.17755E-02  4.97664E-03
  -49.2000  3.41393E-03  2.27688E-04  2.12166E-02  2.12166E-02  2.12166E-02  6.36499E-02  4.43208E-03  2.79332E-03  2.80834E-03  2.77831E-03  2.77831E-03  2.79332E-03  1.39516E-02  9.12327E-04  8.10154E-02  5.57209E-03
  -49.1000  3.40835E-03  2.52738E-04  2.09565E-02  2.09565E-02  2.09565E-02  6.28695E-02  4.89416E-03  2.80189E-03  2.81628E-03  2.78750E-03  2.78750E-03  2.80189E-03  1.39951E-02  1.01519E-03  8.02729E-02  6.16209E-03
  -49.0000  3.40311E-03  2.77751E-04  2.07017E-02  2.07017E-02  2.07017E-02  6.21050E-02  5.35062E-03  2.81064E-03  2.82446E-03  2.79683E-03  2.79683E-03  2.81064E-03  1.40394E-02  1.11838E-03  7.95475E-02  6.74675E-03
  -48.9000  3.39818E-03  3.02727E-04  2.04520E-02  2.04520E-02  2.04520E-02  6.13559E-02  5.80158E-03  2.81957E-03  2.83285E-03  2.80629E-03  2.80629E-03  2.81957E-03  1.40846E-02  1.22190E-03  7.88386E-02  7.32620E-03
  -48.8000  3.39355E-03  3.27669E-04  2.02072E-02  2.02072E-02  2.02072E-02  6.06217E-02  6.24714E-03  2.82866E-03  2.84144E-03  2.81588E-03  2.81588E-03  2.82866E-03  1.41305E-02  1.32575E-03  7.81458E-02  7.90056E-03
  -48.7000  3.38918E-03  3.52579E-04  1.99674E-02  1.99674E-02  1.99674E-02  5.99021E-02  6.68741E-03  2.83790E-03  2.85023E-03  2.82558E-03  2.82558E-03  2.83790E-03  1.41772E-02  1.42995E-03  7.74685E-02  8.46995E-03
  -48.6000  3.38507E-03  3.77459E-04  1.97322E-02  1.97322E-02  1.97322E-02  5.91967E-02  7.12250E-03  2.84730E-03  2.85919E-03  2.83540E-03  2.83540E-03  2.84730E-03  1.42246E-02  1.53450E-03  7.68063E-02  9.03446E-03
  -48.5000  3.38120E-03  4.02310E-04  1.95017E-02  1.95017E-02  1.95017E-02  5.85050E-02  7.55251E-03  2.85683E-03  2.86833E-03  2.84533E-03  2.84533E-03  2.85683E-03  1.42727E-02  1.63941E-03  7.61588E-02  9.59422E-03
  -48.4000  3.37755E-03  4.27135E-04  1.92756E-02  1.92756E-02  1.92756E-02  5.78267E-02  7.97752E-03  2.86650E-03  2.87762E-03  2.85538E-03  2.85538E-03  2.86650E-03  1.43214E-02  1.74467E-03  7.55256E-02  1.01493E-02
  -48.3000  3.37411E-03  4.51934E-04  1.90540E-02  1.90540E-02  1.90540E-02  5.71620E-02  8.39766E-03  2.87629E-03  2.88706E-03  2.86551E-03  2.86551E-03  2.87629E-03  1.43707E-02  1.85029E-03  7.49067E-02  1.06999E-02
  -48.2000  3.37088E-03  4.76710E-04  1.88366E-02  1.88366E-02  1.88366E-02  5.65098E-02  8.81300E-03  2.88620E-03  2.89665E-03  2.87575E-03  2.87575E-03  2.88620E-03  1.44206E-02  1.95628E-03  7.43012E-02  1.12460E-02
  -48.1000  3.36783E-03  5.01463E-04  1.86233E-02  1.86233E-02  1.86233E-02  5.58699E-02  9.22363E-03  2.89624E-03  2.90639E-03  2.88610E-03  2.88610E-03  2.89624E-03  1.44711E-02  2.06264E-03  7.37088E-02  1.17877E-02
  -48.0000  3.36497E-03  5.26195E-04  1.84141E-02  1.84141E-02  1.84141E-02  5.52423E-02  9.62966E-03  2.90640E-03  2.91625E-03  2.89654E-03  2.89654E-03  2.90640E-03  1.45221E-02  2.16937E-03  7.31294E-02  1.23252E-02
  -47.9000  3.36228E-03  5.50907E-04  1.82088E-02  1.82088E-02  1.82088E-02  5.46264E-02  1.00312E-02  2.91666E-03  2.92625E-03  2.90707E-03  2.90707E-03  2.91666E-03  1.45737E-02  2.27649E-03  7.25624E-02  1.28585E-02
  -47.8000  3.35975E-03  5.75601E-04  1.80073E-02  1.80073E-02  1.80073E-02  5.40220E-02  1.04282E-02  2.92704E-03  2.93638E-03  2.91770E-03  2.91770E-03  2.92704E-03  1.46259E-02  2.38399E-03  7.20076E-02  1.33878E-02
  -47.7000  3.35738E-03  6.00277E-04  1.78096E-02  1.78096E-02  1.78096E-02  5.34287E-02  1.08209E-02  2.93753E-03  2.94664E-03  2.92843E-03  2.92843E-03  2.93753E-03  1.46786E-02  2.49187E-03  7.14646E-02  1.39130E-02
  -47.6000  3.35516E-03  6.24937E-04  1.76154E-02  1.76154E-02  1.76154E-02  5.28463E-02  1.12093E-02  2.94813E-03  2.95701E-03  2.93925E-03  2.93925E-03  2.94813E-03  1.47318E-02  2.60015E-03  7.09332E-02  1.44344E-02
  -47.5000  3.35309E-03  6.49582E-04  1.74248E-02  1.74248E-02  1.74248E-02  5.22745E-02  1.15935E-02  2.95883E-03  2.96750E-03  2.95016E-03  2.95016E-03  2.95883E-03  1.47855E-02  2.70882E-03  7.04131E-02  1.49519E-02
  -47.4000  3.35116E-03  6.74213E-04  1.72377E-02  1.72377E-02  1.72377E-02  5.17131E-02  1.19736E-02  2.96963E-03  2.97811E-03  2.96116E-03  2.96116E-03  2.96963E-03  1.48397E-02  2.81789E-03  6.99039E-02  1.54657E-02
  -47.3000  3.34937E-03  6.98830E-04  1.70539E-02  1.70539E-02  1.70539E-02  5.11618E-02  1.23496E-02  2.98054E-03  2.98883E-03  2.97225E-03  2.97225E-03  2.98054E-03  1.48944E-02  2.92736E-03  6.94056E-02  1.59758E-02
  -47.2000  3.34771E-03  7.23435E-04  1.68735E-02  1.68735E-02  1.68735E-02  5.06205E-02  1.27217E-02  2.99154E-03  2.99966E-03  2.98343E-03  2.98343E-03  2.99154E-03  1.49496E-02  3.03724E-03  6.89178E-02  1.64824E-02
  -47.1000  3.34618E-03  7.48029E-04  1.66963E-02  1.66963E-02  1.66963E-02  5.00888E-02  1.30898E-02  3.00265E-03  3.01060E-03  2.99470E-03  2.99470E-03  3.00265E-03  1.50053E-02  3.14752E-03  6.84402E-02  1.69854E-02
  -47.0000  3.34477E-03  7.72613E-04  1.65222E-02  1.65222E-02  1.65222E-02  4.95665E-02  1.34541E-02  3.01385E-03  3.02164E-03  3.00605E-03  3.00605E-03  3.01385E-03  1.50614E-02  3.25822E-03  6.79727E-02  1.74850E-02
  -46.9000  3.34348E-03  7.97187E-04  1.63512E-02  1.63512E-02  1.63512E-02  4.90535E-02  1.38147E-02  3.02515E-03  3.03279E-03  3.01750E-03  3.01750E-03  3.02515E-03  1.51181E-02  3.36934E-03  6.75151E-02  1.79812E-02
  -46.8000  3.34231E-03  8.21752E-04  1.61831E-02  1.61831E-02  1.61831E-02  4.85494E-02  1.41715E-02  3.03654E-03  3.04405E-03  3.02903E-03  3.02903E-03  3.03654E-03  1.51752E-02  3.48088E-03  6.70670E-02  1.84741E-02
  -46.7000  3.34126E-03  8.46310E-04  1.60181E-02  1.60181E-02  1.60181E-02  4.80542E-02  1.45247E-02  3.04803E-03  3.05541E-03  3.04066E-03  3.04066E-03  3.04803E-03  1.52328E-02  3.59283E-03  6.66283E-02  1.89639E-02
  -46.6000  3.34032E-03  8.70861E-04  1.58559E-02  1.58559E-02  1.58559E-02  4.75676E-02  1.48743E-02  3.05962E-03  3.06687E-03  3.05237E-03  3.05237E-03  3.05962E-03  1.52908E-02  3.70522E-03  6.61987E-02  1.94504E-02
  -46.5000  3.33949E-03  8.95406E-04  1.56964E-02  1.56964E-02  1.56964E-02  4.70893E-02  1.52204E-02  3.07130E-03  3.07843E-03  3.06416E-03  3.06416E-03  3.07130E-03  1.53494E-02  3.81804E-03  6.57782E-02  1.99339E-02
  -46.4000  3.33877E-03  9.19945E-04  1.55398E-02  1.55398E-02  1.55398E-02  4.66193E-02  1.55631E-02  3.08307E-03  3.09010E-03  3.07605E-03  3.07605E-03  3.08307E-03  1.54083E-02  3.93129E-03  6.53664E-02  2.04143E-02
  -46.3000  3.33815E-03  9.44480E-04  1.53858E-02  1.53858E-02  1.53858E-02  4.61573E-02  1.59023E-02  3.09494E-03  3.10186E-03  3.08802E-03  3.08802E-03  3.09494E-03  1.54678E-02  4.04497E-03  6.49633E-02  2.08918E-02
  -46.2000  3.33764E-03  9.69012E-04  1.52344E-02  1.52344E-02  1.52344E-02  4.57032E-02  1.62382E-02  3.10691E-03  3.11373E-03  3.10009E-03  3.10009E-03  3.10691E-03  1.55277E-02  4.15910E-03  6.45686E-02  2.13663E-02
  -46.1000  3.33723E-03  9.93540E-04  1.50856E-02  1.50856E-02  1.50856E-02  4.52568E-02  1.65709E-02  3.11896E-03  3.12569E-03  3.11224E-03  3.11224E-03  3.11896E-03  1.55881E-02  4.27367E-03  6.41821E-02  2.18381E-02
  -46.0000  3.33693E-03  1.01807E-03  1.49393E-02  1.49393E-02  1.49393E-02  4.48180E-02  1.69003E-02  3.13111E-03  3.13775E-03  3.12447E-03  3.12447E-03  3.13111E-03  1.56489E-02  4.38869E-03  6.38038E-02  2.23070E-02
  -45.9000  3.33672E-03  1.04259E-03  1.47955E-02  1.47955E-02  1.47955E-02  4.43866E-02  1.72265E-02  3.14335E-03  3.14990E-03  3.13679E-03  3.13679E-03  3.14335E-03  1.57102E-02  4.50415E-03  6.34335E-02  2.27732E-02
  -45.8000  3.33661E-03  1.06711E-03  1.46541E-02  1.46541E-02  1.46541E-02  4.39624E-02  1.75496E-02  3.15568E-03  3.16215E-03  3.14921E-03  3.14921E-03  3.15568E-03  1.57719E-02  4.62007E-03  6.30710E-02  2.32368E-02
  -45.7000  3.33660E-03  1.09164E-03  1.45151E-02  1.45151E-02  1.45151E-02  4.35454E-02  1.78697E-02  3.16810E-03  3.17450E-03  3.16170E-03  3.16170E-03  3.16810E-03  1.58341E-02  4.73645E-03  6.27161E-02  2.36978E-02
  -45.6000  3.33668E-03  1.11616E-03  1.43784E-02  1.43784E-02  1.43784E-02  4.31352E-02  1.81867E-02  3.18062E-03  3.18694E-03  3.17429E-03  3.17429E-03  3.18062E-03  1.58968E-02  4.85329E-03  6.23687E-02  2.41562E-02
  -45.5000  3.33686E-03  1.14069E-03  1.42439E-02  1.42439E-02  1.42439E-02  4.27318E-02  1.85008E-02  3.19323E-03  3.19949E-03  3.18697E-03  3.18697E-03  3.19323E-03  1.59599E-02  4.97060E-03  6.20286E-02  2.46121E-02
  -45.4000  3.33713E-03  1.16521E-03  1.41117E-02  1.41117E-02  1.41117E-02  4.23350E-02  1.88119E-02  3.20593E-03  3.21213E-03  3.19974E-03  3.19974E-03  3.20593E-03  1.60235E-02  5.08837E-03  6.16956E-02  2.50655E-02
  -45.3000  3.33750E-03  1.18974E-03  1.39815E-02  1.39815E-02  1.39815E-02  4.19446E-02  1.91202E-02  3.21873E-03  3.22487E-03  3.21260E-03  3.21260E-03  3.21873E-03  1.60875E-02  5.20661E-03  6.13697E-02  2.55166E-02
  -45.2000  3.33796E-03  1.21428E-03  1.38536E-02  1.38536E-02  1.38536E-02  4.15607E-02  1.94257E-02  3.23163E-03  3.23771E-03  3.22555E-03  3.22555E-03  3.23163E-03  1.61521E-02  5.32532E-03  6.10507E-02  2.59653E-02
  -45.1000  3.33851E-03  1.23882E-03  1.37276E-02  1.37276E-02  1.37276E-02  4.11829E-02  1.97284E-02  3.24462E-03  3.25064E-03  3.23860E-03  3.23860E-03  3.24462E-03  1.62171E-02  5.44452E-03  6.07385E-02  2.64117E-02
  -45.0000  3.33915E-03  1.26336E-03  1.36037E-02  1.36037E-02  1.36037E-02  4.08112E-02  2.00283E-02  3.25771E-03  3.26368E-03  3.25173E-03  3.25173E-03  3.25771E-03  1.62826E-02  5.56419E-03  6.04329E-02  2.68559E-02
  -44.9000  3.33988E-03  1.28791E-03  1.34818E-02  1.34818E-02  1.34818E-02  4.04454E-02  2.03256E-02  3.27089E-03  3.27681E-03  3.26497E-03  3.26497E-03  3.27089E-03  1.63485E-02  5.68435E-03  6.01338E-02  2.72979E-02
  -44.8000  3.34070E-03  1.31246E-03  1.33618E-02  1.33618E-02  1.33618E-02  4.00855E-02  2.06202E-02  3.28417E-03  3.29005E-03  3.27829E-03  3.27829E-03  3.28417E-03  1.64150E-02  5.80500E-03  5.98412E-02  2.77377E-02
  -44.7000  3.34161E-03  1.33702E-03  1.32438E-02  1.32438E-02  1.32438E-02  3.97313E-02  2.09123E-02  3.29755E-03  3.30339E-03  3.29171E-03  3.29171E-03  3.29755E-03  1.64819E-02  5.92614E-03  5.95548E-02  2.81754E-02
  -44.6000  3.34261E-03  1.36159E-03  1.31276E-02  1.31276E-02  1.31276E-02  3.93827E-02  2.12017E-02  3.31102E-03  3.31682E-03  3.30523E-03  3.30523E-03  3.31102E-03  1.65493E-02  6.04777E-03  5.92747E-02  2.86111E-02
  -44.5000  3.34370E-03  1.38616E-03  1.30132E-02  1.30132E-02  1.30132E-02  3.90396E-02  2.14886E-02  3.32460E-03  3.33036E-03  3.31884E-03  3.31884E-03  3.32460E-03  1.66172E-02  6.16991E-03  5.90006E-02  2.90447E-02
  -44.4000  3.34487E-03  1.41075E-03  1.29006E-02  1.29006E-02  1.29006E-02  3.87019E-02  2.17731E-02  3.33827E-03  3.34400E-03  3.33255E-03  3.33255E-03  3.33827E-03  1.66856E-02  6.29254E-03  5.87324E-02  2.94764E-02
  -44.3000  3.34613E-03  1.43534E-03  1.27898E-02  1.27898E-02  1.27898E-02  3.83695E-02  2.20551E-02  3.35204E-03  3.35774E-03  3.34635E-03  3.34635E-03  3.35204E-03  1.67545E-02  6.41569E-03  5.84701E-02  2.99061E-02
  -44.2000  3.34748E-03  1.45994E-03  1.26807E-02  1.26807E-02  1.26807E-02  3.80422E-02  2.23347E-02  3.36592E-03  3.37158E-03  3.36026E-03  3.36026E-03  3.36592E-03  1.68239E-02  6.53934E-03  5.82136E-02  3.03340E-02
  -44.1000  3.34892E-03  1.48456E-03  1.25733E-02  1.25733E-02  1.25733E-02  3.77200E-02  2.26120E-02  3.37989E-03  3.38552E-03  3.37426E-03  3.37426E-03  3.37989E-03  1.68938E-02  6.66351E-03  5.79628E-02  3.07600E-02
  -44.0000  3.35044E-03  1.50918E-03  1.24676E-02  1.24676E-02  1.24676E-02  3.74028E-02  2.28869E-02  3.39397E-03  3.39957E-03  3.38836E-03  3.38836E-03  3.39397E-03  1.69642E-02  6.78819E-03  5.77175E-02  3.11842E-02
  -43.9000  3.35205E-03  1.53382E-03  1.23635E-02  1.23635E-02  1.23635E-02  3.70905E-02  2.31595E-02  3.40815E-03  3.41373E-03  3.40256E-03  3.40256E-03  3.40815E-03  1.70352E-02  6.91340E-03  5.74777E-02  3.16067E-02
  -43.8000  3.35374E-03  1.55847E-03  1.22610E-02  1.22610E-02  1.22610E-02  3.67831E-02  2.34298E-02  3.42243E-03  3.42798E-03  3.41687E-03  3.41687E-03  3.42243E-03  1.71066E-02  7.03913E-03  5.72434E-02  3.20274E-02
  -43.7000  3.35552E-03  1.58313E-03  1.21601E-02  1.21601E-02  1.21601E-02  3.64803E-02  2.36979E-02  3.43681E-03  3.44235E-03  3.43127E-03  3.43127E-03  3.43681E-03  1.71785E-02  7.16539E-03  5.70143E-02  3.24465E-02
  -43.6000  3.35739E-03  1.60781E-03  1.20607E-02  1.20607E-02  1.20607E-02  3.61822E-02  2.39639E-02  3.45130E-03  3.45681E-03  3.44578E-03  3.44578E-03  3.45130E-03  1.72510E-02  7.29218E-03  5.67905E-02  3.28639E-02
  -43.5000  3.35935E-03  1.63250E-03  1.19629E-02  1.19629E-02  1.19629E-02  3.58886E-02  2.42277E-02  3.46588E-03  3.47139E-03  3.46038E-03  3.46038E-03  3.46588E-03  1.73239E-02  7.41951E-03  5.65719E-02  3.32797E-02
  -43.4000  3.36138E-03  1.65721E-03  1.18665E-02  1.18665E-02  1.18665E-02  3.55995E-02  2.44893E-02  3.48058E-03  3.48606E-03  3.47509E-03  3.47509E-03  3.48058E-03  1.73974E-02  7.54738E-03  5.63583E-02  3.36939E-02
  -43.3000  3.36351E-03  1.68193E-03  1.17716E-02  1.17716E-02  1.17716E-02  3.53148E-02  2.47489E-02  3.49538E-03  3.50085E-03  3.48991E-03  3.48991E-03  3.49538E-03  1.74714E-02  7.67579E-03  5.61497E-02  3.41066E-02
  -43.2000  3.36572E-03  1.70667E-03  1.16781E-02  1.16781E-02  1.16781E-02  3.50343E-02  2.50064E-02  3.51029E-03  3.51575E-03  3.50483E-03  3.50483E-03  3.51029E-03  1.75460E-02  7.80475E-03  5.59460E-02  3.45178E-02
  -43.1000  3.36802E-03  1.73142E-03  1.15860E-02  1.15860E-02  1.15860E-02  3.47581E-02  2.52618E-02  3.52531E-03  3.53075E-03  3.51986E-03  3.51986E-03  3.52531E-03  1.76211E-02  7.93427E-03  5.57472E-02  3.49275E-02
  -43.0000  3.37040E-03  1.75619E-03  1.14953E-02  1.14953E-02  1.14953E-02  3.44859E-02  2.55153E-02  3.54043E-03  3.54587E-03  3.53500E-03  3.53500E-03  3.54043E-03  1.76967E-02  8.06433E-03  5.55531E-02  3.53358E-02
  -42.9000  3.37287E-03  1.78098E-03  1.14059E-02  1.14059E-02  1.14059E-02  3.42178E-02  2.57668E-02  3.55567E-03  3.56110E-03  3.55024E-03  3.55024E-03  3.55567E-03  1.77729E-02  8.19496E-03  5.53636E-02  3.57427E-02
  -42.8000  3.37543E-03  1.80579E-03  1.13179E-02  1.13179E-02  1.13179E-02  3.39537E-02  2.60163E-02  3.57102E-03  3.57644E-03  3.56560E-03  3.56560E-03  3.57102E-03  1.78497E-02  8.32616E-03  5.51788E-02  3.61483E-02
  -42.7000  3.37807E-03  1.83062E-03  1.12312E-02  1.12312E-02  1.12312E-02  3.36935E-02  2.62640E-02  3.58649E-03  3.59190E-03  3.58107E-03  3.58107E-03  3.58649E-03  1.79270E-02  8.45792E-03  5.49986E-02  3.65525E-02
  -42.6000  3.38080E-03  1.85547E-03  1.11457E-02  1.11457E-02  1.11457E-02  3.34371E-02  2.65097E-02  3.60206E-03  3.60747E-03  3.59665E-03  3.59665E-03  3.60206E-03  1.80049E-02  8.59025E-03  5.48228E-02  3.69555E-02
  -42.5000  3.38361E-03  1.88034E-03  1.10615E-02  1.10615E-02  1.10615E-02  3.31845E-02  2.67537E-02  3.61775E-03  3.62316E-03  3.61235E-03  3.61235E-03  3.61775E-03  1.80834E-02  8.72316E-03  5.46515E-02  3.73571E-02
  -42.4000  3.38651E-03  1.90523E-03  1.09785E-02  1.09785E-02  1.09785E-02  3.29356E-02  2.69957E-02  3.63356E-03  3.63896E-03  3.62815E-03  3.62815E-03  3.63356E-03  1.81624E-02  8.85665E-03  5.44845E-02  3.77576E-02
  -42.3000  3.38950E-03  1.93014E-03  1.08968E-02  1.08968E-02  1.08968E-02  3.26904E-02  2.72360E-02  3.64948E-03  3.65488E-03  3.64408E-03  3.64408E-03  3.64948E-03  1.82420E-02  8.99073E-03  5.43219E-02  3.81569E-02
  -42.2000  3.39258E-03  1.95507E-03  1.08162E-02  1.08162E-02  1.08162E-02  3.24487E-02  2.74745E-02  3.66552E-03  3.67093E-03  3.66012E-03  3.66012E-03  3.66552E-03  1.83222E-02  9.12539E-03  5.41634E-02  3.85550E-02
  -42.1000  3.39574E-03  1.98003E-03  1.07368E-02  1.07368E-02  1.07368E-02  3.22105E-02  2.77112E-02  3.68168E-03  3.68709E-03  3.67628E-03  3.67628E-03  3.68168E-03  1.84030E-02  9.26065E-03  5.40092E-02  3.89519E-02
  -42.0000  3.39899E-03  2.00501E-03  1.06586E-02  1.06586E-02  1.06586E-02  3.19758E-02  2.79462E-02  3.69796E-03  3.70337E-03  3.69255E-03  3.69255E-03  3.69796E-03  1.84844E-02  9.39651E-03  5.38591E-02  3.93478E-02
  -41.9000  3.40233E-03  2.03002E-03  1.05815E-02  1.05815E-02  1.05815E-02  3.17444E-02  2.81796E-02  3.71436E-03  3.71977E-03  3.70895E-03  3.70895E-03  3.71436E-03  1.85664E-02  9.53297E-03  5.37131E-02  3.97426E-02
  -41.8000  3.40576E-03  2.05505E-03  1.05055E-02  1.05055E-02  1.05055E-02  3.15165E-02  2.84112E-02  3.73088E-03  3.73629E-03  3.72546E-03  3.72546E-03  3.73088E-03  1.86490E-02  9.67004E-03  5.35712E-02  4.01363E-02
  -41.7000  3.40927E-03  2.08011E-03  1.04306E-02  1.04306E-02  1.04306E-02  3.12918E-02  2.86412E-02  3.74752E-03  3.75294E-03  3.74210E-03  3.74210E-03  3.74752E-03  1.87322E-02  9.80772E-03  5.34332E-02  4.05290E-02
  -41.6000  3.41288E-03  2.10520E-03  1.03568E-02  1.03568E-02  1.03568E-02  3.10703E-02  2.88696E-02  3.76429E-03  3.76972E-03  3.75886E-03  3.75886E-03  3.76429E-03  1.88160E-02  9.94601E-03  5.32992E-02  4.09208E-02
  -41.5000  3.41657E-03  2.13031E-03  1.02840E-02  1.02840E-02  1.02840E-02  3.08519E-02  2.90963E-02  3.78119E-03  3.78662E-03  3.77575E-03  3.77575E-03  3.78119E-03  1.89005E-02  1.00849E-02  5.31690E-02  4.13116E-02
  -41.4000  3.42036E-03  2.15545E-03  1.02123E-02  1.02123E-02  1.02123E-02  3.06368E-02  2.93215E-02  3.79820E-03  3.80364E-03  3.79276E-03  3.79276E-03  3.79820E-03  1.89856E-02  1.02245E-02  5.30427E-02  4.17014E-02
  -41.3000  3.42423E-03  2.18061E-03  1.01416E-02  1.01416E-02  1.01416E-02  3.04247E-02  2.95451E-02  3.81534E-03  3.82079E-03  3.80989E-03  3.80989E-03  3.81534E-03  1.90713E-02  1.03646E-02  5.29202E-02  4.20904E-02
  -41.2000  3.42819E-03  2.20581E-03  1.00719E-02  1.00719E-02  1.00719E-02  3.02157E-02  2.97672E-02  3.83261E-03  3.83808E-03  3.82715E-03  3.82715E-03  3.83261E-03  1.91576E-02  1.05054E-02  5.28015E-02  4.24784E-02
  -41.1000  3.43224E-03  2.23104E-03  1.00032E-02  1.00032E-02  1.00032E-02  3.00096E-02  2.99878E-02  3.85001E-03  3.85549E-03  3.84454E-03  3.84454E-03  3.85001E-03  1.92446E-02  1.06469E-02  5.26864E-02  4.28657E-02
