  7112.000   26  1  1  1.8769190E-02 -1.0139195E+01 -5.0870041E-01  1  1  6.9726528E+03  4.2952161E+01  0.0000000E+00  8.9535189E-01  1.0000000E+00  0.0000000E+00  = E_edge, Z, n_edge, j_edge, Abs_before_edge, VO_interstitial, E_cut, ninit, ninit1, Epsii, UnitCell_Volume, Surface_ref, f0_forward, natomsym_f, abs_u_iso
    Energy    <xanes>    
   6962.00  1.9589745E-04
   6962.50  1.9744820E-04
   6963.00  1.9902509E-04
   6963.50  2.0062863E-04
   6964.00  2.0225920E-04
   6964.50  2.0391571E-04
   6965.00  2.0559771E-04
   6965.50  2.0731057E-04
   6966.00  2.0905380E-04
   6966.50  2.1082669E-04
   6967.00  2.1262977E-04
   6967.50  2.1446447E-04
   6968.00  2.1633118E-04
   6968.50  2.1823096E-04
   6969.00  2.2016499E-04
   6969.50  2.2213379E-04
   6970.00  2.2413817E-04
   6970.50  2.2617907E-04
   6971.00  2.2825400E-04
   6971.50  2.3036512E-04
   6972.00  2.3251742E-04
   6972.50  2.3471050E-04
   6973.00  2.3694328E-04
   6973.50  2.3921718E-04
   6974.00  2.4153458E-04
   6974.50  2.4389512E-04
   6975.00  2.4630114E-04
   6975.50  2.4875362E-04
   6976.00  2.5125383E-04
   6976.50  2.5380299E-04
   6977.00  2.5640273E-04
   6977.50  2.5904472E-04
   6978.00  2.6174266E-04
   6978.50  2.6449614E-04
   6979.00  2.6730483E-04
   6979.50  2.7016903E-04
   6980.00  2.7309214E-04
   6980.50  2.7607446E-04
   6981.00  2.7911794E-04
   6981.50  2.8222500E-04
   6982.00  2.8539745E-04
   6982.50  2.8863687E-04
   6983.00  2.9194547E-04
   6983.50  2.9531357E-04
   6984.00  2.9876018E-04
   6984.50  3.0228305E-04
   6985.00  3.0588162E-04
   6985.50  3.0955835E-04
   6986.00  3.1331708E-04
   6986.50  3.1715932E-04
   6987.00  3.2108752E-04
   6987.50  3.2510446E-04
   6988.00  3.2921317E-04
   6988.50  3.3341670E-04
   6989.00  3.3770865E-04
   6989.50  3.4210149E-04
   6990.00  3.4660102E-04
   6990.50  3.5120740E-04
   6991.00  3.5592135E-04
   6991.50  3.6074966E-04
   6992.00  3.6569557E-04
   6992.50  3.7076153E-04
   6993.00  3.7595303E-04
   6993.50  3.8127426E-04
   6994.00  3.8672896E-04
   6994.50  3.9231017E-04
   6995.00  3.9803463E-04
   6995.50  4.0391069E-04
   6996.00  4.0993882E-04
   6996.50  4.1612263E-04
   6997.00  4.2247070E-04
   6997.50  4.2898805E-04
   6998.00  4.3567970E-04
   6998.50  4.4255379E-04
   6999.00  4.4961692E-04
   6999.50  4.5687607E-04
   7000.00  4.6431570E-04
   7000.50  4.7197537E-04
   7001.00  4.7985646E-04
   7001.50  4.8795835E-04
   7002.00  4.9629653E-04
   7002.50  5.0488026E-04
   7003.00  5.1371610E-04
   7003.50  5.2281662E-04
   7004.00  5.3219279E-04
   7004.50  5.4185582E-04
   7005.00  5.5179069E-04
   7005.50  5.6204606E-04
   7006.00  5.7262859E-04
   7006.50  5.8353874E-04
   7007.00  5.9480164E-04
   7007.50  6.0643227E-04
   7008.00  6.1844231E-04
   7008.50  6.3085260E-04
   7009.00  6.4368118E-04
   7009.50  6.5694713E-04
   7010.00  6.7062737E-04
   7010.50  6.8480784E-04
   7011.00  6.9948724E-04
   7011.50  7.1468454E-04
   7012.00  7.3043048E-04
   7012.50  7.4675029E-04
   7013.00  7.6367217E-04
   7013.50  7.8122906E-04
   7014.00  7.9945302E-04
   7014.50  8.1833187E-04
   7015.00  8.3796109E-04
   7015.50  8.5836902E-04
   7016.00  8.7958403E-04
   7016.50  9.0166299E-04
   7017.00  9.2464810E-04
   7017.50  9.4858273E-04
   7018.00  9.7352264E-04
   7018.50  9.9953756E-04
   7019.00  1.0266193E-03
   7019.50  1.0549250E-03
   7020.00  1.0845028E-03
   7020.50  1.1154277E-03
   7021.00  1.1478125E-03
   7021.50  1.1818008E-03
   7022.00  1.2174379E-03
   7022.50  1.2543979E-03
   7023.00  1.2932636E-03
   7023.50  1.3340940E-03
   7024.00  1.3770879E-03
   7024.50  1.4223330E-03
   7025.00  1.4700880E-03
   7025.50  1.5207711E-03
   7026.00  1.5740276E-03
   7026.50  1.6290233E-03
   7027.00  1.6876242E-03
   7027.50  1.7496758E-03
   7028.00  1.8155457E-03
   7028.50  1.8853683E-03
   7029.00  1.9594964E-03
   7029.50  2.0382592E-03
   7030.00  2.1220624E-03
   7030.50  2.2113474E-03
   7031.00  2.3065831E-03
   7031.50  2.4080279E-03
   7032.00  2.5167070E-03
   7032.50  2.6331302E-03
   7033.00  2.7580915E-03
   7033.50  2.8924258E-03
   7034.00  3.0371209E-03
   7034.50  3.1932693E-03
   7035.00  3.3617643E-03
   7035.50  3.5443665E-03
   7036.00  3.7426027E-03
   7036.50  3.9583705E-03
   7037.00  4.1937537E-03
   7037.50  4.4512568E-03
   7038.00  4.7337256E-03
   7038.50  5.0440785E-03
   7039.00  5.3863505E-03
   7039.50  5.7653458E-03
   7040.00  6.1864865E-03
   7040.50  6.6562359E-03
   7041.00  7.1824426E-03
   7041.50  7.7745163E-03
   7042.00  8.4429258E-03
   7042.50  9.2022753E-03
   7043.00  1.0069929E-02
   7043.50  1.1067609E-02
   7044.00  1.2222763E-02
   7044.50  1.3570317E-02
   7045.00  1.5155404E-02
   7045.50  1.7033495E-02
   7046.00  1.9286483E-02
   7046.50  2.2019885E-02
   7047.00  2.5381037E-02
   7047.50  2.9577686E-02
   7048.00  3.4910636E-02
   7048.50  4.1819354E-02
   7049.00  5.0998384E-02
   7049.50  6.3557534E-02
   7050.00  8.1378219E-02
   7050.50  1.0783734E-01
   7051.00  1.4948144E-01
   7051.50  2.2022748E-01
   7052.00  3.5401404E-01
   7052.50  6.4854887E-01
   7053.00  1.4429782E+00
   7053.50  3.5936353E+00
   7054.00  3.3761730E+00
   7054.50  1.3367961E+00
   7055.00  6.1222149E-01
   7055.50  3.3873697E-01
   7056.00  2.1258724E-01
   7056.50  1.4518637E-01
   7057.00  1.0526231E-01
   7057.50  7.9802011E-02
   7058.00  6.2657854E-02
   7058.50  5.0792583E-02
   7059.00  4.2724736E-02
   7059.50  3.5700156E-02
   7060.00  2.9722780E-02
   7060.50  2.5343171E-02
   7061.00  2.1939757E-02
   7061.50  1.9202944E-02
   7062.00  1.6958264E-02
   7062.50  1.5092246E-02
   7063.00  1.3521764E-02
   7063.50  1.2186722E-02
   7064.00  1.1042136E-02
   7064.50  1.0053470E-02
   7065.00  9.1941013E-03
   7065.50  8.4418965E-03
   7066.00  7.7797381E-03
   7066.50  7.1938766E-03
   7067.00  6.6731849E-03
   7067.50  6.2084068E-03
   7068.00  5.7916613E-03
   7068.50  5.4166094E-03
   7069.00  5.0779365E-03
   7069.50  4.7711060E-03
   7070.00  4.4922748E-03
   7070.50  4.2381449E-03
   7071.00  4.0059216E-03
   7071.50  3.7931439E-03
   7072.00  3.5977899E-03
   7072.50  3.4179954E-03
   7073.00  3.2521926E-03
   7073.50  3.0989393E-03
   7074.00  2.9570907E-03
   7074.50  2.8255402E-03
   7075.00  2.7033461E-03
   7075.50  2.5896500E-03
   7076.00  2.4837308E-03
   7076.50  2.3849167E-03
   7077.00  2.2926012E-03
   7077.50  2.2062606E-03
   7078.00  2.1254174E-03
   7078.50  2.0496472E-03
   7079.00  1.9785530E-03
   7079.50  1.9117981E-03
   7080.00  1.8490679E-03
   7080.50  1.7900679E-03
   7081.00  1.7345448E-03
   7081.50  1.6822688E-03
   7082.00  1.6330219E-03
   7082.50  1.5866166E-03
   7083.00  1.5428777E-03
   7083.50  1.5016452E-03
   7084.00  1.4627733E-03
   7084.50  1.4261317E-03
   7085.00  1.3916055E-03
   7085.50  1.3590844E-03
   7086.00  1.3284769E-03
   7086.50  1.2996937E-03
   7087.00  1.2726598E-03
   7087.50  1.2473077E-03
   7088.00  1.2235800E-03
   7088.50  1.2014298E-03
   7089.00  1.1808157E-03
   7089.50  1.1617070E-03
   7090.00  1.1440814E-03
   7090.50  1.1279303E-03
   7091.00  1.1132525E-03
   7091.50  1.1000622E-03
   7092.00  1.0883797E-03
   7092.50  1.0782578E-03
   7093.00  1.0697446E-03
   7093.50  1.0629372E-03
   7094.00  1.0579443E-03
   7094.50  1.0549090E-03
   7095.00  1.0540509E-03
   7095.50  1.0556030E-03
   7096.00  1.0599250E-03
   7096.50  1.0674871E-03
   7097.00  1.0789133E-03
   7097.50  1.0950710E-03
   7098.00  1.1172432E-03
   7098.50  1.1473153E-03
   7099.00  1.1882533E-03
   7099.50  1.2449681E-03
   7100.00  1.3264406E-03
   7100.50  1.4509119E-03
   7101.00  1.6626246E-03
   7101.50  2.0961752E-03
   7102.00  3.0266753E-03
   7102.50  4.1203925E-03
   7103.00  6.0508742E-03
   7103.50  8.5055392E-03
   7104.00  7.8342416E-03
   7104.50  6.0752773E-03
   7105.00  5.6120703E-03
   7105.50  6.1861718E-03
   7106.00  7.7019324E-03
   7106.50  1.0107009E-02
   7107.00  1.2892291E-02
   7107.50  1.6301391E-02
   7108.00  1.9194786E-02
   7108.50  1.8996827E-02
   7109.00  1.9648097E-02
   7109.50  2.3736947E-02
   7110.00  2.5063054E-02
   7110.10  2.4383525E-02
   7110.20  2.3456403E-02
   7110.30  2.2298820E-02
   7110.40  2.0972749E-02
   7110.50  1.9579507E-02
   7110.60  1.8231020E-02
   7110.70  1.7019548E-02
   7110.80  1.6000619E-02
   7110.90  1.5188260E-02
   7111.00  1.4558517E-02
   7111.10  1.4060443E-02
   7111.20  1.3633414E-02
   7111.30  1.3225960E-02
   7111.40  1.2807622E-02
   7111.50  1.2371255E-02
   7111.60  1.1931040E-02
   7111.70  1.1520613E-02
   7111.80  1.1185083E-02
   7111.90  1.0965802E-02
   7112.00  1.0888071E-02
   7112.10  1.0955296E-02
   7112.20  1.1148553E-02
   7112.30  1.1427360E-02
   7112.40  1.1734022E-02
   7112.50  1.2006284E-02
   7112.60  1.2193046E-02
   7112.70  1.2261701E-02
   7112.80  1.2199575E-02
   7112.90  1.2023730E-02
   7113.00  1.1788937E-02
   7113.10  1.1569542E-02
   7113.20  1.1425572E-02
   7113.30  1.1383735E-02
   7113.40  1.1440984E-02
   7113.50  1.1578018E-02
   7113.60  1.1771261E-02
   7113.70  1.1999514E-02
   7113.80  1.2246054E-02
   7113.90  1.2517852E-02
   7114.00  1.2764642E-02
   7114.10  1.2999025E-02
   7114.20  1.3214650E-02
   7114.30  1.3412022E-02
   7114.40  1.3576283E-02
   7114.50  1.3711373E-02
   7114.60  1.3817005E-02
   7114.70  1.3894325E-02
   7114.80  1.3942192E-02
   7114.90  1.3970527E-02
   7115.00  1.3979874E-02
   7115.10  1.3974206E-02
   7115.20  1.3957517E-02
   7115.30  1.3933672E-02
   7115.40  1.3906295E-02
   7115.50  1.3878744E-02
   7115.60  1.3854054E-02
   7115.70  1.3834958E-02
   7115.80  1.3823897E-02
   7115.90  1.3823043E-02
   7116.00  1.3834341E-02
   7116.10  1.3859523E-02
   7116.20  1.3900168E-02
   7116.30  1.3957709E-02
   7116.40  1.4033446E-02
   7116.50  1.4128581E-02
   7116.60  1.4244233E-02
   7116.70  1.4381519E-02
   7116.80  1.4541391E-02
   7116.90  1.4724724E-02
   7117.00  1.4932311E-02
   7117.10  1.5164819E-02
   7117.20  1.5422762E-02
   7117.30  1.5706432E-02
   7117.40  1.6015868E-02
   7117.50  1.6350723E-02
   7117.60  1.6710226E-02
   7117.70  1.7093067E-02
   7117.80  1.7497367E-02
   7117.90  1.7920572E-02
   7118.00  1.8359377E-02
   7118.10  1.8809759E-02
   7118.20  1.9266908E-02
   7118.30  1.9725353E-02
   7118.40  2.0179040E-02
   7118.50  2.0621505E-02
   7118.60  2.1046085E-02
   7118.70  2.1446212E-02
   7118.80  2.1815615E-02
   7118.90  2.2148738E-02
   7119.00  2.2441012E-02
   7119.10  2.2689116E-02
   7119.20  2.2891146E-02
   7119.30  2.3046677E-02
   7119.40  2.3156696E-02
   7119.50  2.3223483E-02
   7119.60  2.3250367E-02
   7119.70  2.3241454E-02
   7119.80  2.3201324E-02
   7119.90  2.3134781E-02
   7120.00  2.3046655E-02
   7120.10  2.2941608E-02
   7120.20  2.2824014E-02
   7120.30  2.2697886E-02
   7120.40  2.2566801E-02
   7120.50  2.2433948E-02
   7120.60  2.2302071E-02
   7120.70  2.2173505E-02
   7120.80  2.2050192E-02
   7120.90  2.1933690E-02
   7121.00  2.1825279E-02
   7121.10  2.1725917E-02
   7121.20  2.1636289E-02
   7121.30  2.1556843E-02
   7121.40  2.1487835E-02
   7121.50  2.1429375E-02
   7121.60  2.1381414E-02
   7121.70  2.1343788E-02
   7121.80  2.1316233E-02
   7121.90  2.1298458E-02
   7122.00  2.1290095E-02
   7122.50  2.1374973E-02
   7123.00  2.1632786E-02
   7123.50  2.2018977E-02
   7124.00  2.2511513E-02
   7124.50  2.3127064E-02
   7125.00  2.3929498E-02
   7125.50  2.5018689E-02
   7126.00  2.6491697E-02
   7126.50  2.8387329E-02
   7127.00  3.0639355E-02
   7127.50  3.2992873E-02
   7128.00  3.5149123E-02
   7128.50  3.6767081E-02
   7129.00  3.7700164E-02
   7129.50  3.7922262E-02
   7130.00  3.7479987E-02
   7130.50  3.6481376E-02
   7131.00  3.5115390E-02
   7131.50  3.3617518E-02
   7132.00  3.2200968E-02
   7132.50  3.1012154E-02
   7133.00  3.0128221E-02
   7133.50  2.9573289E-02
   7134.00  2.9340944E-02
   7134.50  2.9397739E-02
   7135.00  2.9678906E-02
   7135.50  3.0101773E-02
   7136.00  3.0588676E-02
   7136.50  3.1093509E-02
   7137.00  3.1612742E-02
   7137.50  3.2174773E-02
   7138.00  3.2816145E-02
   7138.50  3.3558362E-02
   7139.00  3.4392242E-02
   7139.50  3.5267134E-02
   7140.00  3.6083754E-02
   7140.50  3.6698700E-02
   7141.00  3.6956951E-02
   7141.50  3.6753467E-02
   7142.00  3.6094712E-02
   7142.50  3.5110731E-02
   7143.00  3.4005840E-02
   7143.50  3.2985420E-02
   7144.00  3.2196179E-02
   7144.50  3.1709206E-02
   7145.00  3.1523450E-02
   7145.50  3.1581936E-02
   7146.00  3.1800580E-02
   7146.50  3.2097088E-02
   7147.00  3.2405857E-02
   7147.50  3.2675892E-02
   7148.00  3.2857370E-02
   7148.50  3.2898968E-02
   7149.00  3.2776031E-02
   7149.50  3.2524447E-02
   7150.00  3.2235798E-02
   7150.50  3.1997349E-02
   7151.00  3.1835434E-02
   7151.50  3.1715712E-02
   7152.00  3.1587677E-02
   7152.50  3.1420537E-02
   7153.00  3.1213026E-02
   7153.50  3.0978928E-02
   7154.00  3.0754381E-02
   7154.50  3.0559822E-02
   7155.00  3.0403425E-02
   7155.50  3.0284354E-02
   7156.00  3.0192823E-02
   7156.50  3.0117651E-02
   7157.00  3.0048032E-02
   7157.50  2.9976648E-02
   7158.00  2.9899759E-02
   7158.50  2.9817998E-02
   7159.00  2.9733891E-02
   7159.50  2.9646478E-02
   7160.00  2.9550170E-02
   7160.50  2.9431931E-02
   7161.00  2.9277312E-02
   7161.50  2.9068052E-02
   7162.00  2.8782077E-02
   7162.50  2.8387259E-02
   7163.00  2.7845115E-02
   7163.50  2.7134995E-02
   7164.00  2.6295024E-02
   7164.50  2.5445515E-02
   7165.00  2.4731484E-02
   7165.50  2.4235902E-02
   7166.00  2.3964415E-02
   7166.50  2.3877777E-02
   7167.00  2.3928368E-02
   7167.50  2.4077436E-02
   7168.00  2.4296606E-02
   7168.50  2.4569606E-02
   7169.00  2.4893658E-02
   7169.50  2.5275391E-02
   7170.00  2.5727427E-02
   7170.50  2.6264250E-02
   7171.00  2.6895903E-02
   7171.50  2.7623407E-02
   7172.00  2.8438516E-02
   7172.50  2.9327531E-02
   7173.00  3.0274473E-02
   7173.50  3.1271799E-02
   7174.00  3.2322356E-02
   7174.50  3.3440269E-02
   7175.00  3.4640816E-02
   7175.50  3.5925109E-02
   7176.00  3.7268507E-02
   7176.50  3.8606894E-02
   7177.00  3.9841774E-02
   7177.50  4.0869785E-02
   7178.00  4.1620444E-02
   7178.50  4.2075929E-02
   7179.00  4.2244742E-02
   7179.50  4.2140592E-02
   7180.00  4.1770591E-02
   7180.50  4.1146690E-02
   7181.00  4.0296071E-02
   7181.50  3.9269724E-02
   7182.00  3.8135487E-02
   7182.50  3.6965650E-02
   7183.00  3.5825470E-02
   7183.50  3.4761320E-02
   7184.00  3.3798908E-02
   7184.50  3.2944498E-02
   7185.00  3.2193077E-02
   7185.50  3.1534905E-02
   7186.00  3.0961203E-02
   7186.50  3.0467756E-02
   7187.00  3.0053968E-02
   7187.50  2.9724569E-02
   7188.00  2.9487913E-02
   7188.50  2.9354522E-02
   7189.00  2.9335535E-02
   7189.50  2.9439455E-02
   7190.00  2.9670784E-02
   7190.50  3.0027779E-02
   7191.00  3.0500340E-02
   7191.50  3.1069027E-02
   7192.00  3.1704075E-02
   7192.50  3.2365071E-02
   7193.00  3.3001761E-02
   7193.50  3.3564351E-02
   7194.00  3.4014145E-02
   7194.50  3.4336480E-02
   7195.00  3.4550590E-02
   7195.50  3.4709983E-02
   7196.00  3.4888961E-02
   7196.50  3.5160057E-02
   7197.00  3.5567028E-02
   7197.50  3.6100713E-02
   7198.00  3.6692066E-02
   7198.50  3.7233813E-02
   7199.00  3.7625989E-02
   7199.50  3.7810826E-02
   7200.00  3.7772132E-02
   7200.50  3.7513327E-02
   7201.00  3.7042612E-02
   7201.50  3.6376449E-02
   7202.00  3.5542957E-02
   7202.50  3.4578665E-02
   7203.00  3.3522730E-02
   7203.50  3.2416237E-02
   7204.00  3.1300097E-02
   7204.50  3.0216627E-02
   7205.00  2.9204838E-02
   7205.50  2.8294928E-02
   7206.00  2.7504078E-02
   7206.50  2.6836387E-02
   7207.00  2.6283951E-02
   7207.50  2.5830243E-02
