    Energy    <xanes>    
   7659.00  9.4164363E-05
   7659.50  9.5188664E-05
   7660.00  9.6233032E-05
   7660.50  9.7298056E-05
   7661.00  9.8384348E-05
   7661.50  9.9492544E-05
   7662.00  1.0062331E-04
   7662.50  1.0177732E-04
   7663.00  1.0295532E-04
   7663.50  1.0415803E-04
   7664.00  1.0538624E-04
   7664.50  1.0664077E-04
   7665.00  1.0792246E-04
   7665.50  1.0923220E-04
   7666.00  1.1057090E-04
   7666.50  1.1193954E-04
   7667.00  1.1333912E-04
   7667.50  1.1477071E-04
   7668.00  1.1623539E-04
   7668.50  1.1773434E-04
   7669.00  1.1926875E-04
   7669.50  1.2083990E-04
   7670.00  1.2244912E-04
   7670.50  1.2409780E-04
   7671.00  1.2578741E-04
   7671.50  1.2751950E-04
   7672.00  1.2929566E-04
   7672.50  1.3111762E-04
   7673.00  1.3298717E-04
   7673.50  1.3490618E-04
   7674.00  1.3687666E-04
   7674.50  1.3890070E-04
   7675.00  1.4098052E-04
   7675.50  1.4311847E-04
   7676.00  1.4531702E-04
   7676.50  1.4757880E-04
   7677.00  1.4990658E-04
   7677.50  1.5230330E-04
   7678.00  1.5477211E-04
   7678.50  1.5731631E-04
   7679.00  1.5993944E-04
   7679.50  1.6264526E-04
   7680.00  1.6543778E-04
   7680.50  1.6832125E-04
   7681.00  1.7130026E-04
   7681.50  1.7437968E-04
   7682.00  1.7756473E-04
   7682.50  1.8086102E-04
   7683.00  1.8427454E-04
   7683.50  1.8781176E-04
   7684.00  1.9147964E-04
   7684.50  1.9528567E-04
   7685.00  1.9923793E-04
   7685.50  2.0334519E-04
   7686.00  2.0761691E-04
   7686.50  2.1206340E-04
   7687.00  2.1669583E-04
   7687.50  2.2152639E-04
   7688.00  2.2656838E-04
   7688.50  2.3183636E-04
   7689.00  2.3734629E-04
   7689.50  2.4311571E-04
   7690.00  2.4916395E-04
   7690.50  2.5551236E-04
   7691.00  2.6218462E-04
   7691.50  2.6920702E-04
   7692.00  2.7660891E-04
   7692.50  2.8442308E-04
   7693.00  2.9268638E-04
   7693.50  3.0144033E-04
   7694.00  3.1073194E-04
   7694.50  3.2061465E-04
   7695.00  3.3114949E-04
   7695.50  3.4240657E-04
   7696.00  3.5446681E-04
   7696.50  3.6742423E-04
   7697.00  3.8138876E-04
   7697.50  3.9648984E-04
   7698.00  4.1288114E-04
   7698.50  4.3074660E-04
   7699.00  4.5030855E-04
   7699.50  4.7183851E-04
   7700.00  4.9567204E-04
   7700.50  5.2222929E-04
   7701.00  5.5204417E-04
   7701.50  5.8580667E-04
   7702.00  6.2442571E-04
   7702.50  6.6912545E-04
   7703.00  7.2159757E-04
   7703.50  7.8425170E-04
   7704.00  8.6064626E-04
   7704.50  9.5627008E-04
   7705.00  1.0800550E-03
   7705.50  1.2475392E-03
   7706.00  1.4881434E-03
   7706.50  1.8638843E-03
   7707.00  2.5229404E-03
   7707.10  2.7154155E-03
   7707.20  2.9376595E-03
   7707.30  3.1951808E-03
   7707.40  3.4939370E-03
   7707.50  3.8396629E-03
   7707.60  4.2365465E-03
   7707.70  4.6851152E-03
   7707.80  5.1796545E-03
   7707.90  5.7063584E-03
   7708.00  6.2440465E-03
   7708.10  6.7682886E-03
   7708.20  7.2573816E-03
   7708.30  7.6970354E-03
   7708.40  8.0813905E-03
   7708.50  8.4112075E-03
   7708.60  8.6911634E-03
   7708.70  8.9275955E-03
   7708.80  9.1270883E-03
   7708.90  9.2957627E-03
   7709.00  9.4390021E-03
   7709.10  9.5614009E-03
   7709.20  9.6668084E-03
   7709.30  9.7584053E-03
   7709.40  9.8387910E-03
   7709.50  9.9100754E-03
   7709.60  9.9739744E-03
   7709.70  1.0031907E-02
   7709.80  1.0085088E-02
   7709.90  1.0134606E-02
   7710.00  1.0181487E-02
   7710.10  1.0226728E-02
   7710.20  1.0271320E-02
   7710.30  1.0316239E-02
   7710.40  1.0362436E-02
   7710.50  1.0410808E-02
   7710.60  1.0462182E-02
   7710.70  1.0517293E-02
   7710.80  1.0576774E-02
   7710.90  1.0641150E-02
   7711.00  1.0710830E-02
   7711.10  1.0786117E-02
   7711.20  1.0867208E-02
   7711.30  1.0954205E-02
   7711.40  1.1047125E-02
   7711.50  1.1145914E-02
   7711.60  1.1250453E-02
   7711.70  1.1360569E-02
   7711.80  1.1476049E-02
   7711.90  1.1596645E-02
   7712.00  1.1722085E-02
   7712.10  1.1852079E-02
   7712.20  1.1986324E-02
   7712.30  1.2124513E-02
   7712.40  1.2266337E-02
   7712.50  1.2411487E-02
   7712.60  1.2559661E-02
   7712.70  1.2710561E-02
   7712.80  1.2863901E-02
   7712.90  1.3019401E-02
   7713.00  1.3176796E-02
   7713.10  1.3335829E-02
   7713.20  1.3496256E-02
   7713.30  1.3657848E-02
   7713.40  1.3820385E-02
   7713.50  1.3983662E-02
   7713.60  1.4147486E-02
   7713.70  1.4311677E-02
   7713.80  1.4476067E-02
   7713.90  1.4640498E-02
   7714.00  1.4804825E-02
   7714.10  1.4968914E-02
   7714.20  1.5132638E-02
   7714.30  1.5295883E-02
   7714.40  1.5458543E-02
   7714.50  1.5620519E-02
   7714.60  1.5781722E-02
   7714.70  1.5942069E-02
   7714.80  1.6101486E-02
   7714.90  1.6259903E-02
   7715.00  1.6417257E-02
   7715.10  1.6573492E-02
   7715.20  1.6728557E-02
   7715.30  1.6882403E-02
   7715.40  1.7034989E-02
   7715.50  1.7186277E-02
   7715.60  1.7336233E-02
   7715.70  1.7484826E-02
   7715.80  1.7632032E-02
   7715.90  1.7777825E-02
   7716.00  1.7922188E-02
   7716.10  1.8065104E-02
   7716.20  1.8206559E-02
   7716.30  1.8346543E-02
   7716.40  1.8485050E-02
   7716.50  1.8622074E-02
   7716.60  1.8757614E-02
   7716.70  1.8891670E-02
   7716.80  1.9024245E-02
   7716.90  1.9155344E-02
   7717.00  1.9284974E-02
   7717.10  1.9413143E-02
   7717.20  1.9539862E-02
   7717.30  1.9665143E-02
   7717.40  1.9788998E-02
   7717.50  1.9911442E-02
   7717.60  2.0032488E-02
   7717.70  2.0152152E-02
   7717.80  2.0270451E-02
   7717.90  2.0387401E-02
   7718.00  2.0503020E-02
   7718.10  2.0617325E-02
   7718.20  2.0730335E-02
   7718.30  2.0842070E-02
   7718.40  2.0952549E-02
   7718.50  2.1061795E-02
   7718.60  2.1169827E-02
   7718.70  2.1276665E-02
   7718.80  2.1382328E-02
   7718.90  2.1486831E-02
   7719.00  2.1590187E-02
   7719.50  2.2089948E-02
   7720.00  2.2561506E-02
   7720.50  2.3005282E-02
   7721.00  2.3422162E-02
   7721.50  2.3813506E-02
   7722.00  2.4181195E-02
   7722.50  2.4527538E-02
   7723.00  2.4855019E-02
   7723.50  2.5166005E-02
   7724.00  2.5462516E-02
   7724.50  2.5746017E-02
   7725.00  2.6017251E-02
   7725.50  2.6276175E-02
   7726.00  2.6522018E-02
   7726.50  2.6753405E-02
   7727.00  2.6968549E-02
   7727.50  2.7165499E-02
   7728.00  2.7342410E-02
   7728.50  2.7497792E-02
   7729.00  2.7630726E-02
   7729.50  2.7741007E-02
   7730.00  2.7829206E-02
   7730.50  2.7896649E-02
   7731.00  2.7945323E-02
   7731.50  2.7977726E-02
   7732.00  2.7996693E-02
   7732.50  2.8005203E-02
   7733.00  2.8006207E-02
   7733.50  2.8002468E-02
   7734.00  2.7996443E-02
   7734.50  2.7990191E-02
   7735.00  2.7985314E-02
   7735.50  2.7982936E-02
   7736.00  2.7983705E-02
   7736.50  2.7987809E-02
   7737.00  2.7995020E-02
   7737.50  2.8004749E-02
   7738.00  2.8016102E-02
   7738.50  2.8027954E-02
   7739.00  2.8039017E-02
   7739.50  2.8047915E-02
   7740.00  2.8053254E-02
   7740.50  2.8053685E-02
   7741.00  2.8047967E-02
   7741.50  2.8035017E-02
   7742.00  2.8013943E-02
   7742.50  2.7984081E-02
   7743.00  2.7945000E-02
   7743.50  2.7896514E-02
   7744.00  2.7838665E-02
   7744.50  2.7771714E-02
   7745.00  2.7696112E-02
   7745.50  2.7612474E-02
   7746.00  2.7521552E-02
   7746.50  2.7424201E-02
   7747.00  2.7321355E-02
   7747.50  2.7214002E-02
   7748.00  2.7103157E-02
   7748.50  2.6989846E-02
   7749.00  2.6875085E-02
   7749.50  2.6759868E-02
   7750.00  2.6645149E-02
   7750.50  2.6531834E-02
   7751.00  2.6420769E-02
   7751.50  2.6312733E-02
   7752.00  2.6208436E-02
   7752.50  2.6108512E-02
   7753.00  2.6013524E-02
   7753.50  2.5923967E-02
   7754.00  2.5840276E-02
   7754.50  2.5762832E-02
   7755.00  2.5691975E-02
   7755.50  2.5628015E-02
   7756.00  2.5571245E-02
   7756.50  2.5521952E-02
   7757.00  2.5480427E-02
   7757.50  2.5446974E-02
   7758.00  2.5421913E-02
   7758.50  2.5405582E-02
   7759.00  2.5398339E-02
   7759.50  2.5400549E-02
   7760.00  2.5412578E-02
   7760.50  2.5434780E-02
   7761.00  2.5467480E-02
   7761.50  2.5510954E-02
   7762.00  2.5565414E-02
   7762.50  2.5630992E-02
   7763.00  2.5707719E-02
   7763.50  2.5795515E-02
   7764.00  2.5894179E-02
   7764.50  2.6003379E-02
   7765.00  2.6122657E-02
   7765.50  2.6251425E-02
   7766.00  2.6388972E-02
   7766.50  2.6534474E-02
   7767.00  2.6687009E-02
   7767.50  2.6845567E-02
   7768.00  2.7009069E-02
   7768.50  2.7176385E-02
   7769.00  2.7346352E-02
   7769.50  2.7517789E-02
   7770.00  2.7689520E-02
   7770.50  2.7860384E-02
   7771.00  2.8029258E-02
   7771.50  2.8195060E-02
   7772.00  2.8356771E-02
   7772.50  2.8513438E-02
   7773.00  2.8664183E-02
   7773.50  2.8808209E-02
   7774.00  2.8944800E-02
   7774.50  2.9073328E-02
   7775.00  2.9193242E-02
   7775.50  2.9304076E-02
   7776.00  2.9405436E-02
   7776.50  2.9496997E-02
   7777.00  2.9578500E-02
   7777.50  2.9649739E-02
   7778.00  2.9710561E-02
   7778.50  2.9760856E-02
   7779.00  2.9800550E-02
   7779.50  2.9829608E-02
   7780.00  2.9848022E-02
   7780.50  2.9855816E-02
   7781.00  2.9853042E-02
   7781.50  2.9839781E-02
   7782.00  2.9816146E-02
   7782.50  2.9782281E-02
   7783.00  2.9738365E-02
   7783.50  2.9684616E-02
   7784.00  2.9621288E-02
   7784.50  2.9548681E-02
   7785.00  2.9467134E-02
   7785.50  2.9377031E-02
   7786.00  2.9278802E-02
   7786.50  2.9172918E-02
   7787.00  2.9059893E-02
   7787.50  2.8940283E-02
   7788.00  2.8814678E-02
   7788.50  2.8683705E-02
   7789.00  2.8548017E-02
   7789.50  2.8408293E-02
   7790.00  2.8265228E-02
   7790.50  2.8119528E-02
   7791.00  2.7971903E-02
   7791.50  2.7823056E-02
   7792.00  2.7673678E-02
   7792.50  2.7524439E-02
   7793.00  2.7375979E-02
   7793.50  2.7228903E-02
   7794.00  2.7083777E-02
   7794.50  2.6941117E-02
   7795.00  2.6801397E-02
   7795.50  2.6665038E-02
   7796.00  2.6532418E-02
   7796.50  2.6403868E-02
   7797.00  2.6279682E-02
   7797.50  2.6160115E-02
   7798.00  2.6045392E-02
   7798.50  2.5935710E-02
   7799.00  2.5831241E-02
   7799.50  2.5732137E-02
   7800.00  2.5638524E-02
   7800.50  2.5550506E-02
   7801.00  2.5468162E-02
   7801.50  2.5391541E-02
   7802.00  2.5320655E-02
   7802.50  2.5255481E-02
   7803.00  2.5195953E-02
   7803.50  2.5141957E-02
   7804.00  2.5093332E-02
   7804.50  2.5049868E-02
   7805.00  2.5011304E-02
   7805.50  2.4977336E-02
   7806.00  2.4947619E-02
   7806.50  2.4921775E-02
   7807.00  2.4899403E-02
   7807.50  2.4880091E-02
   7808.00  2.4863426E-02
   7808.50  2.4849008E-02
   7809.00  2.4836462E-02
