    Energy      s          Int(s)         px           py           pz           p          Int(p)       total      Int(total) 
 -200.0000  4.51963E-07  2.65749E-08  3.00773E-09  2.33166E-07  4.96194E-07  7.32368E-07  4.30625E-08  1.18433E-06  6.96374E-08
 -199.2000  4.59383E-07  5.35862E-08  3.07618E-09  2.36778E-07  5.03663E-07  7.43517E-07  8.67805E-08  1.20290E-06  1.40367E-07
 -198.4000  4.66954E-07  8.10426E-08  3.14642E-09  2.40458E-07  5.11271E-07  7.54875E-07  1.31166E-07  1.22183E-06  2.12209E-07
 -197.6000  4.74679E-07  1.08953E-07  3.21850E-09  2.44208E-07  5.19018E-07  7.66445E-07  1.76232E-07  1.24112E-06  2.85186E-07
 -196.8000  4.82562E-07  1.37327E-07  3.29247E-09  2.48031E-07  5.26910E-07  7.78233E-07  2.21992E-07  1.26079E-06  3.59319E-07
 -196.0000  4.90606E-07  1.66174E-07  3.36840E-09  2.51926E-07  5.34949E-07  7.90244E-07  2.68457E-07  1.28085E-06  4.34632E-07
 -195.2000  4.98817E-07  1.95504E-07  3.44633E-09  2.55897E-07  5.43139E-07  8.02482E-07  3.15642E-07  1.30130E-06  5.11147E-07
 -194.4000  5.07197E-07  2.25327E-07  3.52633E-09  2.59944E-07  5.51483E-07  8.14953E-07  3.63561E-07  1.32215E-06  5.88888E-07
 -193.6000  5.15752E-07  2.55653E-07  3.60847E-09  2.64070E-07  5.59983E-07  8.27662E-07  4.12226E-07  1.34341E-06  6.67879E-07
 -192.8000  5.24485E-07  2.86492E-07  3.69281E-09  2.68276E-07  5.68645E-07  8.40615E-07  4.61653E-07  1.36510E-06  7.48145E-07
 -192.0000  5.33402E-07  3.17855E-07  3.77941E-09  2.72565E-07  5.77472E-07  8.53816E-07  5.11857E-07  1.38722E-06  8.29712E-07
 -191.2000  5.42506E-07  3.49754E-07  3.86834E-09  2.76938E-07  5.86467E-07  8.67273E-07  5.62852E-07  1.40978E-06  9.12606E-07
 -190.4000  5.51803E-07  3.82199E-07  3.95968E-09  2.81397E-07  5.95634E-07  8.80990E-07  6.14653E-07  1.43279E-06  9.96852E-07
 -189.6000  5.61297E-07  4.15203E-07  4.05349E-09  2.85945E-07  6.04977E-07  8.94975E-07  6.67276E-07  1.45627E-06  1.08248E-06
 -188.8000  5.70993E-07  4.48777E-07  4.14987E-09  2.90582E-07  6.14500E-07  9.09232E-07  7.20738E-07  1.48023E-06  1.16952E-06
 -188.0000  5.80898E-07  4.82933E-07  4.24888E-09  2.95313E-07  6.24208E-07  9.23769E-07  7.75055E-07  1.50467E-06  1.25799E-06
 -187.2000  5.91015E-07  5.17684E-07  4.35061E-09  3.00138E-07  6.34105E-07  9.38593E-07  8.30243E-07  1.52961E-06  1.34793E-06
 -186.4000  6.01351E-07  5.53043E-07  4.45514E-09  3.05060E-07  6.44194E-07  9.53709E-07  8.86320E-07  1.55506E-06  1.43936E-06
 -185.6000  6.11912E-07  5.89023E-07  4.56256E-09  3.10081E-07  6.54482E-07  9.69125E-07  9.43304E-07  1.58104E-06  1.53233E-06
 -184.8000  6.22702E-07  6.25637E-07  4.67296E-09  3.15204E-07  6.64971E-07  9.84848E-07  1.00121E-06  1.60755E-06  1.62685E-06
 -184.0000  6.33729E-07  6.62899E-07  4.78644E-09  3.20431E-07  6.75668E-07  1.00089E-06  1.06006E-06  1.63461E-06  1.72296E-06
 -183.2000  6.44998E-07  7.00825E-07  4.90309E-09  3.25765E-07  6.86577E-07  1.01725E-06  1.11988E-06  1.66224E-06  1.82070E-06
 -182.4000  6.56516E-07  7.39427E-07  5.02302E-09  3.31209E-07  6.97703E-07  1.03393E-06  1.18067E-06  1.69045E-06  1.92010E-06
 -181.6000  6.68290E-07  7.78722E-07  5.14632E-09  3.36764E-07  7.09051E-07  1.05096E-06  1.24247E-06  1.71925E-06  2.02119E-06
 -180.8000  6.80326E-07  8.18724E-07  5.27312E-09  3.42435E-07  7.20627E-07  1.06834E-06  1.30528E-06  1.74866E-06  2.12401E-06
 -180.0000  6.92632E-07  8.59450E-07  5.40352E-09  3.48223E-07  7.32437E-07  1.08606E-06  1.36914E-06  1.77869E-06  2.22859E-06
 -179.2000  7.05215E-07  9.00916E-07  5.53764E-09  3.54132E-07  7.44485E-07  1.10415E-06  1.43406E-06  1.80937E-06  2.33498E-06
 -178.4000  7.18081E-07  9.43138E-07  5.67559E-09  3.60164E-07  7.56777E-07  1.12262E-06  1.50007E-06  1.84070E-06  2.44321E-06
 -177.6000  7.31240E-07  9.86135E-07  5.81752E-09  3.66323E-07  7.69320E-07  1.14146E-06  1.56719E-06  1.87270E-06  2.55332E-06
 -176.8000  7.44700E-07  1.02992E-06  5.96353E-09  3.72612E-07  7.82120E-07  1.16070E-06  1.63544E-06  1.90540E-06  2.66536E-06
 -176.0000  7.58467E-07  1.07452E-06  6.11378E-09  3.79035E-07  7.95183E-07  1.18033E-06  1.70484E-06  1.93880E-06  2.77936E-06
 -175.2000  7.72552E-07  1.11994E-06  6.26840E-09  3.85594E-07  8.08516E-07  1.20038E-06  1.77542E-06  1.97293E-06  2.89537E-06
 -174.4000  7.86963E-07  1.16622E-06  6.42753E-09  3.92293E-07  8.22125E-07  1.22085E-06  1.84721E-06  2.00781E-06  3.01342E-06
 -173.6000  8.01708E-07  1.21336E-06  6.59134E-09  3.99136E-07  8.36018E-07  1.24175E-06  1.92022E-06  2.04345E-06  3.13357E-06
 -172.8000  8.16798E-07  1.26138E-06  6.75996E-09  4.06127E-07  8.50201E-07  1.26309E-06  1.99449E-06  2.07989E-06  3.25587E-06
 -172.0000  8.32242E-07  1.31032E-06  6.93357E-09  4.13269E-07  8.64681E-07  1.28488E-06  2.07004E-06  2.11713E-06  3.38035E-06
 -171.2000  8.48050E-07  1.36018E-06  7.11233E-09  4.20566E-07  8.79467E-07  1.30715E-06  2.14690E-06  2.15520E-06  3.50708E-06
 -170.4000  8.64233E-07  1.41100E-06  7.29643E-09  4.28023E-07  8.94566E-07  1.32988E-06  2.22509E-06  2.19412E-06  3.63609E-06
 -169.6000  8.80801E-07  1.46279E-06  7.48603E-09  4.35643E-07  9.09986E-07  1.35311E-06  2.30465E-06  2.23392E-06  3.76744E-06
 -168.8000  8.97766E-07  1.51558E-06  7.68134E-09  4.43431E-07  9.25735E-07  1.37685E-06  2.38561E-06  2.27461E-06  3.90119E-06
 -168.0000  9.15139E-07  1.56939E-06  7.88254E-09  4.51391E-07  9.41822E-07  1.40110E-06  2.46799E-06  2.31624E-06  4.03738E-06
 -167.2000  9.32931E-07  1.62424E-06  8.08984E-09  4.59529E-07  9.58255E-07  1.42587E-06  2.55183E-06  2.35880E-06  4.17607E-06
 -166.4000  9.51156E-07  1.68017E-06  8.30346E-09  4.67847E-07  9.75044E-07  1.45120E-06  2.63716E-06  2.40235E-06  4.31733E-06
 -165.6000  9.69826E-07  1.73719E-06  8.52360E-09  4.76353E-07  9.92198E-07  1.47707E-06  2.72401E-06  2.44690E-06  4.46120E-06
 -164.8000  9.88954E-07  1.79534E-06  8.75051E-09  4.85050E-07  1.00973E-06  1.50353E-06  2.81242E-06  2.49248E-06  4.60776E-06
 -164.0000  1.00855E-06  1.85464E-06  8.98442E-09  4.93944E-07  1.02764E-06  1.53057E-06  2.90241E-06  2.53912E-06  4.75706E-06
 -163.2000  1.02864E-06  1.91513E-06  9.22558E-09  5.03040E-07  1.04595E-06  1.55821E-06  2.99403E-06  2.58685E-06  4.90916E-06
 -162.4000  1.04923E-06  1.97682E-06  9.47424E-09  5.12343E-07  1.06466E-06  1.58648E-06  3.08732E-06  2.63570E-06  5.06414E-06
 -161.6000  1.07033E-06  2.03975E-06  9.73068E-09  5.21860E-07  1.08379E-06  1.61538E-06  3.18230E-06  2.68571E-06  5.22205E-06
 -160.8000  1.09196E-06  2.10396E-06  9.99516E-09  5.31597E-07  1.10334E-06  1.64493E-06  3.27902E-06  2.73689E-06  5.38298E-06
 -160.0000  1.11414E-06  2.16947E-06  1.02680E-08  5.41559E-07  1.12334E-06  1.67516E-06  3.37752E-06  2.78930E-06  5.54699E-06
 -159.2000  1.13689E-06  2.23632E-06  1.05495E-08  5.51752E-07  1.14378E-06  1.70608E-06  3.47783E-06  2.84297E-06  5.71415E-06
 -158.4000  1.16021E-06  2.30454E-06  1.08399E-08  5.62184E-07  1.16469E-06  1.73771E-06  3.58001E-06  2.89793E-06  5.88455E-06
 -157.6000  1.18414E-06  2.37416E-06  1.11396E-08  5.72861E-07  1.18607E-06  1.77007E-06  3.68409E-06  2.95421E-06  6.05825E-06
 -156.8000  1.20869E-06  2.44523E-06  1.14489E-08  5.83790E-07  1.20794E-06  1.80318E-06  3.79011E-06  3.01187E-06  6.23535E-06
 -156.0000  1.23387E-06  2.51778E-06  1.17683E-08  5.94977E-07  1.23032E-06  1.83706E-06  3.89813E-06  3.07093E-06  6.41591E-06
 -155.2000  1.25971E-06  2.59185E-06  1.20979E-08  6.06432E-07  1.25320E-06  1.87173E-06  4.00819E-06  3.13145E-06  6.60004E-06
 -154.4000  1.28624E-06  2.66748E-06  1.24384E-08  6.18160E-07  1.27663E-06  1.90722E-06  4.12033E-06  3.19346E-06  6.78781E-06
 -153.6000  1.31346E-06  2.74471E-06  1.27899E-08  6.30171E-07  1.30059E-06  1.94355E-06  4.23461E-06  3.25701E-06  6.97932E-06
 -152.8000  1.34141E-06  2.82359E-06  1.31530E-08  6.42472E-07  1.32512E-06  1.98074E-06  4.35107E-06  3.32215E-06  7.17466E-06
 -152.0000  1.37010E-06  2.90415E-06  1.35281E-08  6.55072E-07  1.35022E-06  2.01882E-06  4.46978E-06  3.38892E-06  7.37392E-06
 -151.2000  1.39956E-06  2.98644E-06  1.39157E-08  6.67980E-07  1.37592E-06  2.05781E-06  4.59077E-06  3.45738E-06  7.57721E-06
 -150.4000  1.42982E-06  3.07051E-06  1.43162E-08  6.81204E-07  1.40222E-06  2.09774E-06  4.71412E-06  3.52757E-06  7.78463E-06
 -149.6000  1.46091E-06  3.15641E-06  1.47301E-08  6.94754E-07  1.42916E-06  2.13864E-06  4.83987E-06  3.59955E-06  7.99628E-06
 -148.8000  1.49284E-06  3.24419E-06  1.51579E-08  7.08640E-07  1.45674E-06  2.18054E-06  4.96808E-06  3.67338E-06  8.21227E-06
 -148.0000  1.52565E-06  3.33390E-06  1.56003E-08  7.22873E-07  1.48499E-06  2.22346E-06  5.09882E-06  3.74911E-06  8.43272E-06
 -147.2000  1.55937E-06  3.42558E-06  1.60577E-08  7.37461E-07  1.51392E-06  2.26744E-06  5.23214E-06  3.82681E-06  8.65773E-06
 -146.4000  1.59403E-06  3.51931E-06  1.65307E-08  7.52417E-07  1.54355E-06  2.31250E-06  5.36812E-06  3.90653E-06  8.88743E-06
 -145.6000  1.62966E-06  3.61513E-06  1.70199E-08  7.67750E-07  1.57391E-06  2.35868E-06  5.50680E-06  3.98834E-06  9.12194E-06
 -144.8000  1.66629E-06  3.71311E-06  1.75261E-08  7.83474E-07  1.60502E-06  2.40602E-06  5.64827E-06  4.07231E-06  9.36138E-06
 -144.0000  1.70396E-06  3.81330E-06  1.80499E-08  7.99600E-07  1.63690E-06  2.45455E-06  5.79260E-06  4.15851E-06  9.60590E-06
 -143.2000  1.74270E-06  3.91577E-06  1.85919E-08  8.16141E-07  1.66957E-06  2.50430E-06  5.93985E-06  4.24700E-06  9.85562E-06
 -142.4000  1.78256E-06  4.02058E-06  1.91529E-08  8.33109E-07  1.70305E-06  2.55531E-06  6.09010E-06  4.33787E-06  1.01107E-05
 -141.6000  1.82356E-06  4.12781E-06  1.97337E-08  8.50517E-07  1.73738E-06  2.60763E-06  6.24342E-06  4.43119E-06  1.03712E-05
 -140.8000  1.86575E-06  4.23751E-06  2.03351E-08  8.68379E-07  1.77257E-06  2.66129E-06  6.39991E-06  4.52704E-06  1.06374E-05
 -140.0000  1.90917E-06  4.34977E-06  2.09579E-08  8.86711E-07  1.80866E-06  2.71633E-06  6.55962E-06  4.62550E-06  1.09094E-05
 -139.2000  1.95388E-06  4.46465E-06  2.16030E-08  9.05527E-07  1.84567E-06  2.77280E-06  6.72266E-06  4.72667E-06  1.11873E-05
 -138.4000  1.99990E-06  4.58225E-06  2.22713E-08  9.24843E-07  1.88363E-06  2.83074E-06  6.88910E-06  4.83064E-06  1.14713E-05
 -137.6000  2.04729E-06  4.70262E-06  2.29638E-08  9.44675E-07  1.92257E-06  2.89020E-06  7.05905E-06  4.93750E-06  1.17617E-05
 -136.8000  2.09610E-06  4.82587E-06  2.36816E-08  9.65037E-07  1.96251E-06  2.95123E-06  7.23257E-06  5.04734E-06  1.20584E-05
 -136.0000  2.14639E-06  4.95208E-06  2.44255E-08  9.85950E-07  2.00350E-06  3.01388E-06  7.40979E-06  5.16027E-06  1.23619E-05
 -135.2000  2.19819E-06  5.08133E-06  2.51969E-08  1.00743E-06  2.04557E-06  3.07820E-06  7.59078E-06  5.27639E-06  1.26721E-05
 -134.4000  2.25158E-06  5.21372E-06  2.59968E-08  1.02950E-06  2.08875E-06  3.14424E-06  7.77566E-06  5.39583E-06  1.29894E-05
 -133.6000  2.30662E-06  5.34935E-06  2.68265E-08  1.05217E-06  2.13307E-06  3.21207E-06  7.96453E-06  5.51869E-06  1.33139E-05
 -132.8000  2.36335E-06  5.48831E-06  2.76872E-08  1.07547E-06  2.17858E-06  3.28173E-06  8.15749E-06  5.64509E-06  1.36458E-05
 -132.0000  2.42185E-06  5.63071E-06  2.85803E-08  1.09941E-06  2.22530E-06  3.35330E-06  8.35466E-06  5.77515E-06  1.39854E-05
 -131.2000  2.48219E-06  5.77666E-06  2.95072E-08  1.12403E-06  2.27329E-06  3.42682E-06  8.55615E-06  5.90901E-06  1.43328E-05
 -130.4000  2.54443E-06  5.92627E-06  3.04694E-08  1.14933E-06  2.32258E-06  3.50238E-06  8.76209E-06  6.04681E-06  1.46884E-05
 -129.6000  2.60865E-06  6.07966E-06  3.14684E-08  1.17536E-06  2.37322E-06  3.58004E-06  8.97259E-06  6.18869E-06  1.50522E-05
 -128.8000  2.67492E-06  6.23694E-06  3.25058E-08  1.20212E-06  2.42524E-06  3.65987E-06  9.18779E-06  6.33479E-06  1.54247E-05
 -128.0000  2.74333E-06  6.39824E-06  3.35835E-08  1.22964E-06  2.47871E-06  3.74194E-06  9.40781E-06  6.48527E-06  1.58061E-05
 -127.2000  2.81396E-06  6.56370E-06  3.47031E-08  1.25796E-06  2.53366E-06  3.82632E-06  9.63279E-06  6.64028E-06  1.61965E-05
 -126.4000  2.88689E-06  6.73345E-06  3.58666E-08  1.28710E-06  2.59015E-06  3.91311E-06  9.86288E-06  6.80000E-06  1.65963E-05
 -125.6000  2.96223E-06  6.90762E-06  3.70760E-08  1.31709E-06  2.64822E-06  4.00239E-06  1.00982E-05  6.96461E-06  1.70058E-05
 -124.8000  3.04006E-06  7.08638E-06  3.83333E-08  1.34795E-06  2.70794E-06  4.09423E-06  1.03390E-05  7.13430E-06  1.74253E-05
 -124.0000  3.12050E-06  7.26986E-06  3.96408E-08  1.37973E-06  2.76937E-06  4.18874E-06  1.05852E-05  7.30924E-06  1.78551E-05
 -123.2000  3.20363E-06  7.45823E-06  4.10008E-08  1.41245E-06  2.83255E-06  4.28600E-06  1.08373E-05  7.48963E-06  1.82955E-05
 -122.4000  3.28958E-06  7.65165E-06  4.24158E-08  1.44615E-06  2.89755E-06  4.38611E-06  1.10952E-05  7.67569E-06  1.87468E-05
 -121.6000  3.37847E-06  7.85030E-06  4.38882E-08  1.48085E-06  2.96444E-06  4.48918E-06  1.13591E-05  7.86765E-06  1.92094E-05
 -120.8000  3.47041E-06  8.05436E-06  4.54209E-08  1.51661E-06  3.03328E-06  4.59531E-06  1.16293E-05  8.06572E-06  1.96837E-05
 -120.0000  3.56554E-06  8.26401E-06  4.70168E-08  1.55346E-06  3.10415E-06  4.70463E-06  1.19059E-05  8.27016E-06  2.01699E-05
 -119.2000  3.66398E-06  8.47945E-06  4.86787E-08  1.59144E-06  3.17711E-06  4.81722E-06  1.21892E-05  8.48120E-06  2.06686E-05
 -118.4000  3.76588E-06  8.70087E-06  5.04099E-08  1.63058E-06  3.25224E-06  4.93323E-06  1.24793E-05  8.69911E-06  2.11801E-05
 -117.6000  3.87140E-06  8.92851E-06  5.22137E-08  1.67095E-06  3.32962E-06  5.05278E-06  1.27764E-05  8.92417E-06  2.17049E-05
 -116.8000  3.98068E-06  9.16257E-06  5.40938E-08  1.71257E-06  3.40934E-06  5.17600E-06  1.30807E-05  9.15668E-06  2.22433E-05
 -116.0000  4.09390E-06  9.40329E-06  5.60538E-08  1.75550E-06  3.49147E-06  5.30303E-06  1.33925E-05  9.39693E-06  2.27958E-05
 -115.2000  4.21123E-06  9.65090E-06  5.80978E-08  1.79980E-06  3.57613E-06  5.43402E-06  1.37120E-05  9.64525E-06  2.33629E-05
 -114.4000  4.33283E-06  9.90567E-06  6.02297E-08  1.84550E-06  3.66337E-06  5.56910E-06  1.40395E-05  9.90193E-06  2.39451E-05
 -113.6000  4.45892E-06  1.01678E-05  6.24541E-08  1.89267E-06  3.75332E-06  5.70845E-06  1.43751E-05  1.01674E-05  2.45430E-05
 -112.8000  4.58970E-06  1.04377E-05  6.47758E-08  1.94137E-06  3.84608E-06  5.85222E-06  1.47192E-05  1.04419E-05  2.51570E-05
 -112.0000  4.72538E-06  1.07156E-05  6.71996E-08  1.99166E-06  3.94175E-06  6.00060E-06  1.50721E-05  1.07260E-05  2.57876E-05
 -111.2000  4.86618E-06  1.10017E-05  6.97307E-08  2.04359E-06  4.04045E-06  6.15377E-06  1.54339E-05  1.10200E-05  2.64356E-05
 -110.4000  5.01232E-06  1.12964E-05  7.23745E-08  2.09723E-06  4.14228E-06  6.31188E-06  1.58050E-05  1.13242E-05  2.71014E-05
 -109.6000  5.16409E-06  1.16001E-05  7.51372E-08  2.15266E-06  4.24738E-06  6.47517E-06  1.61858E-05  1.16393E-05  2.77858E-05
 -108.8000  5.32174E-06  1.19130E-05  7.80248E-08  2.20995E-06  4.35587E-06  6.64385E-06  1.65764E-05  1.19656E-05  2.84894E-05
 -108.0000  5.48554E-06  1.22355E-05  8.10440E-08  2.26917E-06  4.46790E-06  6.81811E-06  1.69773E-05  1.23037E-05  2.92128E-05
 -107.2000  5.65581E-06  1.25681E-05  8.42018E-08  2.33040E-06  4.58360E-06  6.99821E-06  1.73888E-05  1.26540E-05  2.99569E-05
 -106.4000  5.83280E-06  1.29110E-05  8.75053E-08  2.39372E-06  4.70310E-06  7.18433E-06  1.78112E-05  1.30171E-05  3.07223E-05
 -105.6000  6.01690E-06  1.32648E-05  9.09627E-08  2.45923E-06  4.82658E-06  7.37678E-06  1.82450E-05  1.33937E-05  3.15098E-05
 -104.8000  6.20846E-06  1.36299E-05  9.45824E-08  2.52702E-06  4.95421E-06  7.57581E-06  1.86904E-05  1.37843E-05  3.23203E-05
 -104.0000  6.40783E-06  1.40066E-05  9.83732E-08  2.59719E-06  5.08613E-06  7.78170E-06  1.91480E-05  1.41895E-05  3.31546E-05
 -103.2000  6.61542E-06  1.43956E-05  1.02345E-07  2.66983E-06  5.22255E-06  7.99472E-06  1.96181E-05  1.46101E-05  3.40137E-05
 -102.4000  6.83158E-06  1.47973E-05  1.06506E-07  2.74504E-06  5.36362E-06  8.21517E-06  2.01011E-05  1.50467E-05  3.48984E-05
 -101.6000  7.05682E-06  1.52122E-05  1.10869E-07  2.82295E-06  5.50957E-06  8.44339E-06  2.05976E-05  1.55002E-05  3.58098E-05
 -100.8000  7.29161E-06  1.56410E-05  1.15445E-07  2.90369E-06  5.66060E-06  8.67973E-06  2.11079E-05  1.59713E-05  3.67489E-05
 -100.0000  7.53643E-06  1.60841E-05  1.20245E-07  2.98736E-06  5.81693E-06  8.92453E-06  2.16327E-05  1.64610E-05  3.77168E-05
  -99.2000  7.79178E-06  1.65423E-05  1.25283E-07  3.07409E-06  5.97877E-06  9.17814E-06  2.21723E-05  1.69699E-05  3.87146E-05
  -98.4000  8.05823E-06  1.70161E-05  1.30572E-07  3.16403E-06  6.14637E-06  9.44097E-06  2.27275E-05  1.74992E-05  3.97435E-05
  -97.6000  8.33640E-06  1.75062E-05  1.36127E-07  3.25733E-06  6.31999E-06  9.71345E-06  2.32986E-05  1.80498E-05  4.08049E-05
  -96.8000  8.62694E-06  1.80135E-05  1.41964E-07  3.35414E-06  6.49991E-06  9.99601E-06  2.38864E-05  1.86230E-05  4.18999E-05
  -96.0000  8.93050E-06  1.85386E-05  1.48100E-07  3.45462E-06  6.68640E-06  1.02891E-05  2.44913E-05  1.92196E-05  4.30300E-05
  -95.2000  9.24772E-06  1.90824E-05  1.54551E-07  3.55893E-06  6.87971E-06  1.05932E-05  2.51142E-05  1.98409E-05  4.41966E-05
  -94.4000  9.57947E-06  1.96456E-05  1.61338E-07  3.66727E-06  7.08021E-06  1.09088E-05  2.57556E-05  2.04883E-05  4.54013E-05
  -93.6000  9.92656E-06  2.02293E-05  1.68481E-07  3.77982E-06  7.28822E-06  1.12365E-05  2.64163E-05  2.11631E-05  4.66456E-05
  -92.8000  1.02899E-05  2.08343E-05  1.76002E-07  3.89680E-06  7.50409E-06  1.15769E-05  2.70970E-05  2.18668E-05  4.79314E-05
  -92.0000  1.06702E-05  2.14617E-05  1.83924E-07  4.01838E-06  7.72815E-06  1.19305E-05  2.77985E-05  2.26007E-05  4.92603E-05
  -91.2000  1.10687E-05  2.21126E-05  1.92272E-07  4.14482E-06  7.96081E-06  1.22979E-05  2.85217E-05  2.33666E-05  5.06342E-05
  -90.4000  1.14864E-05  2.27879E-05  2.01073E-07  4.27636E-06  8.20248E-06  1.26799E-05  2.92672E-05  2.41663E-05  5.20552E-05
  -89.6000  1.19244E-05  2.34891E-05  2.10356E-07  4.41325E-06  8.45361E-06  1.30772E-05  3.00361E-05  2.50016E-05  5.35252E-05
  -88.8000  1.23840E-05  2.42172E-05  2.20153E-07  4.55575E-06  8.71466E-06  1.34906E-05  3.08294E-05  2.58746E-05  5.50466E-05
  -88.0000  1.28663E-05  2.49738E-05  2.30495E-07  4.70412E-06  8.98601E-06  1.39206E-05  3.16479E-05  2.67869E-05  5.66217E-05
  -87.2000  1.33729E-05  2.57601E-05  2.41419E-07  4.85869E-06  9.26828E-06  1.43684E-05  3.24927E-05  2.77413E-05  5.82528E-05
  -86.4000  1.39053E-05  2.65777E-05  2.52964E-07  5.01980E-06  9.56201E-06  1.48348E-05  3.33650E-05  2.87400E-05  5.99427E-05
  -85.6000  1.44651E-05  2.74282E-05  2.65172E-07  5.18777E-06  9.86777E-06  1.53207E-05  3.42658E-05  2.97858E-05  6.16941E-05
  -84.8000  1.50538E-05  2.83134E-05  2.78084E-07  5.36291E-06  1.01861E-05  1.58271E-05  3.51965E-05  3.08809E-05  6.35098E-05
  -84.0000  1.56735E-05  2.92350E-05  2.91752E-07  5.54567E-06  1.05176E-05  1.63551E-05  3.61581E-05  3.20286E-05  6.53931E-05
  -83.2000  1.63263E-05  3.01949E-05  3.06227E-07  5.73644E-06  1.08632E-05  1.69059E-05  3.71522E-05  3.32322E-05  6.73471E-05
  -82.4000  1.70144E-05  3.11954E-05  3.21565E-07  5.93567E-06  1.12235E-05  1.74807E-05  3.81800E-05  3.44951E-05  6.93754E-05
  -81.6000  1.77397E-05  3.22384E-05  3.37824E-07  6.14375E-06  1.15991E-05  1.80806E-05  3.92431E-05  3.58203E-05  7.14816E-05
  -80.8000  1.85050E-05  3.33265E-05  3.55072E-07  6.36123E-06  1.19910E-05  1.87073E-05  4.03431E-05  3.72123E-05  7.36696E-05
  -80.0000  1.93132E-05  3.44621E-05  3.73380E-07  6.58864E-06  1.24001E-05  1.93621E-05  4.14816E-05  3.86753E-05  7.59437E-05
  -79.2000  2.01672E-05  3.56479E-05  3.92825E-07  6.82655E-06  1.28273E-05  2.00466E-05  4.26603E-05  4.02138E-05  7.83082E-05
  -78.4000  2.10698E-05  3.68868E-05  4.13486E-07  7.07547E-06  1.32734E-05  2.07624E-05  4.38811E-05  4.18321E-05  8.07679E-05
  -77.6000  2.20248E-05  3.81818E-05  4.35457E-07  7.33612E-06  1.37397E-05  2.15113E-05  4.51459E-05  4.35361E-05  8.33278E-05
  -76.8000  2.30360E-05  3.95363E-05  4.58835E-07  7.60918E-06  1.42274E-05  2.22954E-05  4.64569E-05  4.53313E-05  8.59932E-05
