    Energy      s          Int(s)         px           py           pz           p          Int(p)       total      Int(total) 
 -200.0000  7.36073E-07  4.32803E-08  1.10784E-08  1.10787E-08  1.30689E-06  1.32905E-06  7.81465E-08  2.06512E-06  1.21427E-07
 -199.2000  7.48109E-07  8.72683E-08  1.12732E-08  1.12734E-08  1.32684E-06  1.34938E-06  1.57489E-07  2.09749E-06  2.44757E-07
 -198.4000  7.60385E-07  1.31978E-07  1.14720E-08  1.14723E-08  1.34715E-06  1.37010E-06  2.38049E-07  2.13048E-06  3.70027E-07
 -197.6000  7.72909E-07  1.77424E-07  1.16750E-08  1.16753E-08  1.36785E-06  1.39120E-06  3.19850E-07  2.16410E-06  4.97274E-07
 -196.8000  7.85684E-07  2.23622E-07  1.18824E-08  1.18827E-08  1.38893E-06  1.41269E-06  4.02914E-07  2.19838E-06  6.26536E-07
 -196.0000  7.98719E-07  2.70585E-07  1.20942E-08  1.20945E-08  1.41040E-06  1.43459E-06  4.87267E-07  2.23331E-06  7.57852E-07
 -195.2000  8.12019E-07  3.18331E-07  1.23105E-08  1.23108E-08  1.43228E-06  1.45690E-06  5.72931E-07  2.26892E-06  8.91262E-07
 -194.4000  8.25590E-07  3.66875E-07  1.25314E-08  1.25317E-08  1.45457E-06  1.47964E-06  6.59932E-07  2.30523E-06  1.02681E-06
 -193.6000  8.39439E-07  4.16233E-07  1.27571E-08  1.27574E-08  1.47729E-06  1.50280E-06  7.48295E-07  2.34224E-06  1.16453E-06
 -192.8000  8.53574E-07  4.66422E-07  1.29877E-08  1.29880E-08  1.50044E-06  1.52641E-06  8.38047E-07  2.37998E-06  1.30447E-06
 -192.0000  8.68000E-07  5.17460E-07  1.32233E-08  1.32236E-08  1.52402E-06  1.55047E-06  9.29213E-07  2.41847E-06  1.44667E-06
 -191.2000  8.82726E-07  5.69363E-07  1.34641E-08  1.34644E-08  1.54806E-06  1.57499E-06  1.02182E-06  2.45772E-06  1.59118E-06
 -190.4000  8.97759E-07  6.22150E-07  1.37101E-08  1.37104E-08  1.57257E-06  1.59999E-06  1.11590E-06  2.49775E-06  1.73805E-06
 -189.6000  9.13106E-07  6.75840E-07  1.39615E-08  1.39618E-08  1.59754E-06  1.62547E-06  1.21147E-06  2.53857E-06  1.88731E-06
 -188.8000  9.28776E-07  7.30451E-07  1.42184E-08  1.42188E-08  1.62300E-06  1.65144E-06  1.30858E-06  2.58022E-06  2.03903E-06
 -188.0000  9.44777E-07  7.86003E-07  1.44811E-08  1.44814E-08  1.64896E-06  1.67792E-06  1.40724E-06  2.62270E-06  2.19324E-06
 -187.2000  9.61117E-07  8.42516E-07  1.47496E-08  1.47499E-08  1.67542E-06  1.70492E-06  1.50748E-06  2.66604E-06  2.35000E-06
 -186.4000  9.77804E-07  9.00010E-07  1.50241E-08  1.50244E-08  1.70240E-06  1.73245E-06  1.60935E-06  2.71025E-06  2.50936E-06
 -185.6000  9.94849E-07  9.58506E-07  1.53047E-08  1.53050E-08  1.72991E-06  1.76052E-06  1.71287E-06  2.75537E-06  2.67137E-06
 -184.8000  1.01226E-06  1.01803E-06  1.55916E-08  1.55920E-08  1.75797E-06  1.78915E-06  1.81807E-06  2.80141E-06  2.83609E-06
 -184.0000  1.03004E-06  1.07859E-06  1.58850E-08  1.58854E-08  1.78658E-06  1.81835E-06  1.92498E-06  2.84839E-06  3.00357E-06
 -183.2000  1.04821E-06  1.14022E-06  1.61851E-08  1.61855E-08  1.81576E-06  1.84813E-06  2.03365E-06  2.89634E-06  3.17388E-06
 -182.4000  1.06678E-06  1.20295E-06  1.64920E-08  1.64924E-08  1.84552E-06  1.87850E-06  2.14411E-06  2.94528E-06  3.34706E-06
 -181.6000  1.08575E-06  1.26679E-06  1.68060E-08  1.68063E-08  1.87588E-06  1.90949E-06  2.25638E-06  2.99524E-06  3.52317E-06
 -180.8000  1.10514E-06  1.33177E-06  1.71271E-08  1.71275E-08  1.90685E-06  1.94111E-06  2.37052E-06  3.04624E-06  3.70229E-06
 -180.0000  1.12495E-06  1.39792E-06  1.74556E-08  1.74560E-08  1.93845E-06  1.97336E-06  2.48655E-06  3.09831E-06  3.88447E-06
 -179.2000  1.14521E-06  1.46525E-06  1.77918E-08  1.77922E-08  1.97069E-06  2.00627E-06  2.60451E-06  3.15148E-06  4.06977E-06
 -178.4000  1.16591E-06  1.53381E-06  1.81357E-08  1.81361E-08  2.00359E-06  2.03986E-06  2.72446E-06  3.20577E-06  4.25827E-06
 -177.6000  1.18708E-06  1.60361E-06  1.84877E-08  1.84881E-08  2.03716E-06  2.07413E-06  2.84641E-06  3.26121E-06  4.45002E-06
 -176.8000  1.20872E-06  1.67468E-06  1.88480E-08  1.88484E-08  2.07142E-06  2.10911E-06  2.97043E-06  3.31783E-06  4.64511E-06
 -176.0000  1.23085E-06  1.74705E-06  1.92167E-08  1.92171E-08  2.10638E-06  2.14482E-06  3.09654E-06  3.37566E-06  4.84359E-06
 -175.2000  1.25348E-06  1.82075E-06  1.95941E-08  1.95946E-08  2.14208E-06  2.18126E-06  3.22480E-06  3.43474E-06  5.04555E-06
 -174.4000  1.27662E-06  1.89582E-06  1.99805E-08  1.99810E-08  2.17851E-06  2.21847E-06  3.35524E-06  3.49509E-06  5.25106E-06
 -173.6000  1.30029E-06  1.97227E-06  2.03761E-08  2.03766E-08  2.21571E-06  2.25646E-06  3.48792E-06  3.55675E-06  5.46019E-06
 -172.8000  1.32451E-06  2.05015E-06  2.07812E-08  2.07817E-08  2.25368E-06  2.29525E-06  3.62287E-06  3.61976E-06  5.67303E-06
 -172.0000  1.34929E-06  2.12949E-06  2.11960E-08  2.11965E-08  2.29246E-06  2.33485E-06  3.76016E-06  3.68414E-06  5.88965E-06
 -171.2000  1.37464E-06  2.21032E-06  2.16209E-08  2.16214E-08  2.33206E-06  2.37530E-06  3.89983E-06  3.74993E-06  6.11014E-06
 -170.4000  1.40058E-06  2.29267E-06  2.20561E-08  2.20566E-08  2.37249E-06  2.41661E-06  4.04192E-06  3.81718E-06  6.33459E-06
 -169.6000  1.42712E-06  2.37658E-06  2.25018E-08  2.25024E-08  2.41380E-06  2.45880E-06  4.18649E-06  3.88592E-06  6.56308E-06
 -168.8000  1.45430E-06  2.46209E-06  2.29585E-08  2.29591E-08  2.45598E-06  2.50190E-06  4.33360E-06  3.95620E-06  6.79570E-06
 -168.0000  1.48211E-06  2.54924E-06  2.34264E-08  2.34270E-08  2.49908E-06  2.54593E-06  4.48330E-06  4.02804E-06  7.03254E-06
 -167.2000  1.51058E-06  2.63806E-06  2.39059E-08  2.39065E-08  2.54310E-06  2.59091E-06  4.63564E-06  4.10150E-06  7.27371E-06
 -166.4000  1.53974E-06  2.72860E-06  2.43972E-08  2.43978E-08  2.58808E-06  2.63688E-06  4.79069E-06  4.17662E-06  7.51929E-06
 -165.6000  1.56959E-06  2.82089E-06  2.49008E-08  2.49015E-08  2.63405E-06  2.68385E-06  4.94850E-06  4.25344E-06  7.76938E-06
 -164.8000  1.60016E-06  2.91497E-06  2.54171E-08  2.54177E-08  2.68102E-06  2.73185E-06  5.10913E-06  4.33202E-06  8.02410E-06
 -164.0000  1.63148E-06  3.01090E-06  2.59463E-08  2.59469E-08  2.72902E-06  2.78092E-06  5.27264E-06  4.41239E-06  8.28355E-06
 -163.2000  1.66355E-06  3.10872E-06  2.64888E-08  2.64895E-08  2.77809E-06  2.83107E-06  5.43911E-06  4.49462E-06  8.54783E-06
 -162.4000  1.69641E-06  3.20847E-06  2.70452E-08  2.70458E-08  2.82824E-06  2.88233E-06  5.60858E-06  4.57874E-06  8.81705E-06
 -161.6000  1.73008E-06  3.31019E-06  2.76157E-08  2.76164E-08  2.87951E-06  2.93474E-06  5.78114E-06  4.66482E-06  9.09134E-06
 -160.8000  1.76457E-06  3.41395E-06  2.82008E-08  2.82015E-08  2.93193E-06  2.98834E-06  5.95685E-06  4.75291E-06  9.37080E-06
 -160.0000  1.79993E-06  3.51978E-06  2.88010E-08  2.88018E-08  2.98553E-06  3.04314E-06  6.13579E-06  4.84307E-06  9.65557E-06
 -159.2000  1.83617E-06  3.62775E-06  2.94168E-08  2.94175E-08  3.04035E-06  3.09918E-06  6.31802E-06  4.93535E-06  9.94576E-06
 -158.4000  1.87332E-06  3.73790E-06  3.00485E-08  3.00493E-08  3.09641E-06  3.15650E-06  6.50362E-06  5.02982E-06  1.02415E-05
 -157.6000  1.91140E-06  3.85028E-06  3.06967E-08  3.06975E-08  3.15374E-06  3.21514E-06  6.69266E-06  5.12654E-06  1.05429E-05
 -156.8000  1.95045E-06  3.96497E-06  3.13620E-08  3.13627E-08  3.21240E-06  3.27512E-06  6.88524E-06  5.22557E-06  1.08502E-05
 -156.0000  1.99050E-06  4.08201E-06  3.20447E-08  3.20455E-08  3.27240E-06  3.33649E-06  7.08142E-06  5.32699E-06  1.11634E-05
 -155.2000  2.03157E-06  4.20146E-06  3.27456E-08  3.27464E-08  3.33379E-06  3.39928E-06  7.28129E-06  5.43085E-06  1.14828E-05
 -154.4000  2.07370E-06  4.32339E-06  3.34651E-08  3.34659E-08  3.39661E-06  3.46354E-06  7.48494E-06  5.53725E-06  1.18083E-05
 -153.6000  2.11693E-06  4.44787E-06  3.42038E-08  3.42047E-08  3.46090E-06  3.52931E-06  7.69246E-06  5.64624E-06  1.21403E-05
 -152.8000  2.16128E-06  4.57495E-06  3.49624E-08  3.49633E-08  3.52670E-06  3.59662E-06  7.90394E-06  5.75790E-06  1.24789E-05
 -152.0000  2.20679E-06  4.70470E-06  3.57415E-08  3.57424E-08  3.59405E-06  3.66553E-06  8.11947E-06  5.87232E-06  1.28242E-05
 -151.2000  2.25350E-06  4.83721E-06  3.65418E-08  3.65427E-08  3.66299E-06  3.73608E-06  8.33915E-06  5.98957E-06  1.31764E-05
 -150.4000  2.30145E-06  4.97253E-06  3.73639E-08  3.73648E-08  3.73358E-06  3.80831E-06  8.56307E-06  6.10976E-06  1.35356E-05
 -149.6000  2.35067E-06  5.11075E-06  3.82085E-08  3.82095E-08  3.80586E-06  3.88228E-06  8.79135E-06  6.23295E-06  1.39021E-05
 -148.8000  2.40121E-06  5.25194E-06  3.90764E-08  3.90774E-08  3.87988E-06  3.95803E-06  9.02407E-06  6.35925E-06  1.42760E-05
 -148.0000  2.45312E-06  5.39618E-06  3.99684E-08  3.99694E-08  3.95569E-06  4.03563E-06  9.26136E-06  6.48875E-06  1.46575E-05
 -147.2000  2.50643E-06  5.54355E-06  4.08852E-08  4.08862E-08  4.03334E-06  4.11511E-06  9.50333E-06  6.62154E-06  1.50469E-05
 -146.4000  2.56119E-06  5.69415E-06  4.18277E-08  4.18287E-08  4.11289E-06  4.19655E-06  9.75008E-06  6.75774E-06  1.54442E-05
 -145.6000  2.61745E-06  5.84805E-06  4.27966E-08  4.27977E-08  4.19439E-06  4.27999E-06  1.00017E-05  6.89744E-06  1.58498E-05
 -144.8000  2.67527E-06  6.00535E-06  4.37930E-08  4.37941E-08  4.27791E-06  4.36550E-06  1.02584E-05  7.04076E-06  1.62638E-05
 -144.0000  2.73468E-06  6.16615E-06  4.48178E-08  4.48189E-08  4.36350E-06  4.45313E-06  1.05203E-05  7.18782E-06  1.66864E-05
 -143.2000  2.79576E-06  6.33054E-06  4.58718E-08  4.58730E-08  4.45122E-06  4.54296E-06  1.07874E-05  7.33872E-06  1.71179E-05
 -142.4000  2.85855E-06  6.49862E-06  4.69561E-08  4.69573E-08  4.54114E-06  4.63505E-06  1.10599E-05  7.49360E-06  1.75585E-05
 -141.6000  2.92310E-06  6.67049E-06  4.80717E-08  4.80729E-08  4.63332E-06  4.72947E-06  1.13380E-05  7.65257E-06  1.80085E-05
 -140.8000  2.98949E-06  6.84627E-06  4.92197E-08  4.92209E-08  4.72784E-06  4.82629E-06  1.16218E-05  7.81578E-06  1.84681E-05
 -140.0000  3.05778E-06  7.02606E-06  5.04012E-08  5.04025E-08  4.82477E-06  4.92558E-06  1.19114E-05  7.98336E-06  1.89375E-05
 -139.2000  3.12803E-06  7.20999E-06  5.16175E-08  5.16188E-08  4.92419E-06  5.02742E-06  1.22070E-05  8.15546E-06  1.94170E-05
 -138.4000  3.20032E-06  7.39816E-06  5.28697E-08  5.28710E-08  5.02616E-06  5.13190E-06  1.25088E-05  8.33222E-06  1.99069E-05
 -137.6000  3.27470E-06  7.59071E-06  5.41590E-08  5.41604E-08  5.13077E-06  5.23909E-06  1.28168E-05  8.51379E-06  2.04075E-05
 -136.8000  3.35126E-06  7.78776E-06  5.54868E-08  5.54882E-08  5.23811E-06  5.34908E-06  1.31313E-05  8.70034E-06  2.09191E-05
 -136.0000  3.43008E-06  7.98945E-06  5.68544E-08  5.68559E-08  5.34825E-06  5.46196E-06  1.34525E-05  8.89204E-06  2.14419E-05
 -135.2000  3.51123E-06  8.19591E-06  5.82634E-08  5.82649E-08  5.46129E-06  5.57782E-06  1.37805E-05  9.08906E-06  2.19764E-05
 -134.4000  3.59481E-06  8.40728E-06  5.97151E-08  5.97166E-08  5.57733E-06  5.69676E-06  1.41154E-05  9.29157E-06  2.25227E-05
 -133.6000  3.68090E-06  8.62371E-06  6.12112E-08  6.12128E-08  5.69646E-06  5.81888E-06  1.44576E-05  9.49978E-06  2.30813E-05
 -132.8000  3.76958E-06  8.84536E-06  6.27532E-08  6.27548E-08  5.81877E-06  5.94428E-06  1.48071E-05  9.71386E-06  2.36524E-05
 -132.0000  3.86096E-06  9.07238E-06  6.43427E-08  6.43444E-08  5.94437E-06  6.07306E-06  1.51642E-05  9.93403E-06  2.42366E-05
 -131.2000  3.95515E-06  9.30494E-06  6.59817E-08  6.59834E-08  6.07338E-06  6.20535E-06  1.55290E-05  1.01605E-05  2.48340E-05
 -130.4000  4.05223E-06  9.54320E-06  6.76719E-08  6.76737E-08  6.20590E-06  6.34125E-06  1.59019E-05  1.03935E-05  2.54451E-05
 -129.6000  4.15233E-06  9.78736E-06  6.94153E-08  6.94170E-08  6.34206E-06  6.48089E-06  1.62830E-05  1.06332E-05  2.60703E-05
 -128.8000  4.25556E-06  1.00376E-05  7.12137E-08  7.12156E-08  6.48196E-06  6.62439E-06  1.66725E-05  1.08800E-05  2.67101E-05
 -128.0000  4.36203E-06  1.02941E-05  7.30693E-08  7.30712E-08  6.62574E-06  6.77188E-06  1.70707E-05  1.11339E-05  2.73647E-05
 -127.2000  4.47187E-06  1.05570E-05  7.49843E-08  7.49862E-08  6.77353E-06  6.92350E-06  1.74778E-05  1.13954E-05  2.80348E-05
 -126.4000  4.58521E-06  1.08266E-05  7.69609E-08  7.69629E-08  6.92547E-06  7.07939E-06  1.78940E-05  1.16646E-05  2.87206E-05
 -125.6000  4.70219E-06  1.11031E-05  7.90016E-08  7.90036E-08  7.08169E-06  7.23970E-06  1.83197E-05  1.19419E-05  2.94228E-05
 -124.8000  4.82296E-06  1.13867E-05  8.11088E-08  8.11109E-08  7.24236E-06  7.40458E-06  1.87551E-05  1.22275E-05  3.01418E-05
 -124.0000  4.94765E-06  1.16776E-05  8.32850E-08  8.32871E-08  7.40761E-06  7.57418E-06  1.92004E-05  1.25218E-05  3.08780E-05
 -123.2000  5.07643E-06  1.19761E-05  8.55329E-08  8.55351E-08  7.57760E-06  7.74867E-06  1.96561E-05  1.28251E-05  3.16321E-05
 -122.4000  5.20946E-06  1.22824E-05  8.78555E-08  8.78578E-08  7.75252E-06  7.92823E-06  2.01222E-05  1.31377E-05  3.24046E-05
 -121.6000  5.34692E-06  1.25968E-05  9.02557E-08  9.02580E-08  7.93253E-06  8.11305E-06  2.05993E-05  1.34600E-05  3.31960E-05
 -120.8000  5.48899E-06  1.29195E-05  9.27366E-08  9.27390E-08  8.11782E-06  8.30330E-06  2.10875E-05  1.37923E-05  3.40070E-05
 -120.0000  5.63586E-06  1.32509E-05  9.53015E-08  9.53040E-08  8.30857E-06  8.49918E-06  2.15872E-05  1.41350E-05  3.48381E-05
 -119.2000  5.78769E-06  1.35912E-05  9.79535E-08  9.79560E-08  8.50497E-06  8.70088E-06  2.20988E-05  1.44886E-05  3.56901E-05
 -118.4000  5.94474E-06  1.39408E-05  1.00696E-07  1.00699E-07  8.70723E-06  8.90863E-06  2.26227E-05  1.48534E-05  3.65634E-05
 -117.6000  6.10721E-06  1.42999E-05  1.03534E-07  1.03537E-07  8.91559E-06  9.12266E-06  2.31591E-05  1.52299E-05  3.74589E-05
 -116.8000  6.27533E-06  1.46688E-05  1.06470E-07  1.06473E-07  9.13024E-06  9.34319E-06  2.37084E-05  1.56185E-05  3.83773E-05
 -116.0000  6.44935E-06  1.50481E-05  1.09509E-07  1.09512E-07  9.35145E-06  9.57047E-06  2.42712E-05  1.60198E-05  3.93192E-05
 -115.2000  6.62949E-06  1.54379E-05  1.12655E-07  1.12657E-07  9.57941E-06  9.80472E-06  2.48477E-05  1.64342E-05  4.02855E-05
 -114.4000  6.81604E-06  1.58386E-05  1.15912E-07  1.15915E-07  9.81442E-06  1.00462E-05  2.54384E-05  1.68623E-05  4.12770E-05
 -113.6000  7.00929E-06  1.62508E-05  1.19285E-07  1.19288E-07  1.00567E-05  1.02953E-05  2.60437E-05  1.73046E-05  4.22945E-05
 -112.8000  7.20952E-06  1.66747E-05  1.22779E-07  1.22782E-07  1.03066E-05  1.05522E-05  2.66642E-05  1.77617E-05  4.33389E-05
 -112.0000  7.41706E-06  1.71108E-05  1.26400E-07  1.26403E-07  1.05644E-05  1.08172E-05  2.73002E-05  1.82343E-05  4.44110E-05
 -111.2000  7.63220E-06  1.75596E-05  1.30152E-07  1.30155E-07  1.08304E-05  1.10907E-05  2.79523E-05  1.87229E-05  4.55119E-05
 -110.4000  7.85529E-06  1.80215E-05  1.34042E-07  1.34045E-07  1.11048E-05  1.13729E-05  2.86211E-05  1.92282E-05  4.66425E-05
 -109.6000  8.08673E-06  1.84969E-05  1.38075E-07  1.38078E-07  1.13881E-05  1.16642E-05  2.93069E-05  1.97510E-05  4.78038E-05
 -108.8000  8.32688E-06  1.89866E-05  1.42258E-07  1.42262E-07  1.16805E-05  1.19651E-05  3.00104E-05  2.02920E-05  4.89970E-05
 -108.0000  8.57616E-06  1.94908E-05  1.46598E-07  1.46602E-07  1.19826E-05  1.22758E-05  3.07322E-05  2.08519E-05  5.02231E-05
 -107.2000  8.83494E-06  2.00103E-05  1.51102E-07  1.51105E-07  1.22945E-05  1.25967E-05  3.14729E-05  2.14316E-05  5.14832E-05
 -106.4000  9.10370E-06  2.05456E-05  1.55776E-07  1.55780E-07  1.26168E-05  1.29283E-05  3.22331E-05  2.20320E-05  5.27787E-05
 -105.6000  9.38295E-06  2.10973E-05  1.60629E-07  1.60633E-07  1.29498E-05  1.32710E-05  3.30134E-05  2.26540E-05  5.41107E-05
 -104.8000  9.67316E-06  2.16661E-05  1.65669E-07  1.65674E-07  1.32940E-05  1.36253E-05  3.38146E-05  2.32985E-05  5.54806E-05
 -104.0000  9.97488E-06  2.22526E-05  1.70906E-07  1.70910E-07  1.36499E-05  1.39917E-05  3.46373E-05  2.39666E-05  5.68898E-05
 -103.2000  1.02886E-05  2.28576E-05  1.76346E-07  1.76350E-07  1.40179E-05  1.43706E-05  3.54822E-05  2.46592E-05  5.83398E-05
 -102.4000  1.06150E-05  2.34817E-05  1.82001E-07  1.82005E-07  1.43985E-05  1.47626E-05  3.63502E-05  2.53775E-05  5.98319E-05
 -101.6000  1.09546E-05  2.41258E-05  1.87881E-07  1.87885E-07  1.47924E-05  1.51682E-05  3.72421E-05  2.61228E-05  6.13679E-05
 -100.8000  1.13083E-05  2.47907E-05  1.93996E-07  1.94000E-07  1.52001E-05  1.55881E-05  3.81587E-05  2.68963E-05  6.29494E-05
 -100.0000  1.16766E-05  2.54773E-05  2.00357E-07  2.00362E-07  1.56220E-05  1.60228E-05  3.91008E-05  2.76993E-05  6.45781E-05
  -99.2000  1.20601E-05  2.61864E-05  2.06976E-07  2.06981E-07  1.60589E-05  1.64729E-05  4.00694E-05  2.85330E-05  6.62558E-05
  -98.4000  1.24599E-05  2.69191E-05  2.13867E-07  2.13872E-07  1.65115E-05  1.69392E-05  4.10654E-05  2.93992E-05  6.79845E-05
  -97.6000  1.28768E-05  2.76762E-05  2.21042E-07  2.21048E-07  1.69804E-05  1.74225E-05  4.20898E-05  3.02993E-05  6.97660E-05
  -96.8000  1.33116E-05  2.84589E-05  2.28516E-07  2.28522E-07  1.74664E-05  1.79234E-05  4.31437E-05  3.12350E-05  7.16026E-05
  -96.0000  1.37652E-05  2.92683E-05  2.36303E-07  2.36309E-07  1.79701E-05  1.84427E-05  4.42281E-05  3.22079E-05  7.34964E-05
  -95.2000  1.42387E-05  3.01055E-05  2.44420E-07  2.44425E-07  1.84924E-05  1.89813E-05  4.53442E-05  3.32199E-05  7.54497E-05
  -94.4000  1.47332E-05  3.09718E-05  2.52882E-07  2.52888E-07  1.90342E-05  1.95400E-05  4.64931E-05  3.42732E-05  7.74649E-05
  -93.6000  1.52498E-05  3.18685E-05  2.61708E-07  2.61715E-07  1.95964E-05  2.01199E-05  4.76761E-05  3.53696E-05  7.95446E-05
  -92.8000  1.57897E-05  3.27969E-05  2.70917E-07  2.70924E-07  2.01800E-05  2.07218E-05  4.88946E-05  3.65115E-05  8.16915E-05
  -92.0000  1.63542E-05  3.37585E-05  2.80528E-07  2.80534E-07  2.07857E-05  2.13468E-05  5.01497E-05  3.77009E-05  8.39082E-05
  -91.2000  1.69446E-05  3.47548E-05  2.90562E-07  2.90569E-07  2.14148E-05  2.19960E-05  5.14431E-05  3.89406E-05  8.61979E-05
  -90.4000  1.75627E-05  3.57875E-05  3.01043E-07  3.01050E-07  2.20685E-05  2.26706E-05  5.27761E-05  4.02333E-05  8.85636E-05
  -89.6000  1.82098E-05  3.68582E-05  3.11994E-07  3.12001E-07  2.27479E-05  2.33719E-05  5.41503E-05  4.15817E-05  9.10085E-05
  -88.8000  1.88876E-05  3.79688E-05  3.23440E-07  3.23447E-07  2.34540E-05  2.41009E-05  5.55674E-05  4.29885E-05  9.35362E-05
  -88.0000  1.95979E-05  3.91211E-05  3.35407E-07  3.35415E-07  2.41884E-05  2.48593E-05  5.70291E-05  4.44572E-05  9.61502E-05
  -87.2000  2.03428E-05  4.03173E-05  3.47927E-07  3.47934E-07  2.49525E-05  2.56484E-05  5.85372E-05  4.59912E-05  9.88545E-05
  -86.4000  2.11244E-05  4.15593E-05  3.61028E-07  3.61036E-07  2.57477E-05  2.64698E-05  6.00936E-05  4.75942E-05  1.01653E-04
  -85.6000  2.19446E-05  4.28497E-05  3.74742E-07  3.74750E-07  2.65756E-05  2.73251E-05  6.17003E-05  4.92697E-05  1.04550E-04
  -84.8000  2.28060E-05  4.41906E-05  3.89105E-07  3.89113E-07  2.74377E-05  2.82160E-05  6.33594E-05  5.10219E-05  1.07550E-04
  -84.0000  2.37111E-05  4.55848E-05  4.04154E-07  4.04162E-07  2.83361E-05  2.91444E-05  6.50730E-05  5.28555E-05  1.10658E-04
  -83.2000  2.46629E-05  4.70350E-05  4.19929E-07  4.19938E-07  2.92724E-05  3.01123E-05  6.68436E-05  5.47752E-05  1.13879E-04
  -82.4000  2.56640E-05  4.85440E-05  4.36470E-07  4.36479E-07  3.02488E-05  3.11217E-05  6.86735E-05  5.67857E-05  1.17218E-04
  -81.6000  2.67176E-05  5.01150E-05  4.53823E-07  4.53832E-07  3.12671E-05  3.21748E-05  7.05654E-05  5.88923E-05  1.20680E-04
  -80.8000  2.78273E-05  5.17512E-05  4.72036E-07  4.72046E-07  3.23299E-05  3.32740E-05  7.25218E-05  6.11013E-05  1.24273E-04
  -80.0000  2.89969E-05  5.34562E-05  4.91163E-07  4.91173E-07  3.34395E-05  3.44219E-05  7.45458E-05  6.34188E-05  1.28002E-04
  -79.2000  3.02301E-05  5.52337E-05  5.11256E-07  5.11266E-07  3.45985E-05  3.56210E-05  7.66403E-05  6.58511E-05  1.31874E-04
  -78.4000  3.15312E-05  5.70877E-05  5.32373E-07  5.32383E-07  3.58094E-05  3.68741E-05  7.88084E-05  6.84053E-05  1.35896E-04
  -77.6000  3.29051E-05  5.90224E-05  5.54580E-07  5.54590E-07  3.70753E-05  3.81845E-05  8.10536E-05  7.10896E-05  1.40076E-04
  -76.8000  3.43568E-05  6.10426E-05  5.77945E-07  5.77956E-07  3.83995E-05  3.95554E-05  8.33795E-05  7.39122E-05  1.44422E-04
