    Energy      s          Int(s)         px           py           pz           p          Int(p)       total      Int(total) 
 -200.0000  8.67925E-09  5.10330E-10  5.02104E-11  6.17232E-09  9.09804E-09  1.53206E-08  9.00833E-10  2.39998E-08  1.41116E-09
 -199.2000  8.90658E-09  1.03403E-09  5.17642E-11  6.33117E-09  9.32188E-09  1.57048E-08  1.82426E-09  2.46114E-08  2.85829E-09
 -198.4000  9.14053E-09  1.57148E-09  5.33704E-11  6.49452E-09  9.55183E-09  1.60997E-08  2.77091E-09  2.52403E-08  4.34239E-09
 -197.6000  9.38131E-09  2.12309E-09  5.50309E-11  6.66251E-09  9.78807E-09  1.65056E-08  3.74142E-09  2.58869E-08  5.86451E-09
 -196.8000  9.62913E-09  2.68927E-09  5.67477E-11  6.83530E-09  1.00308E-08  1.69228E-08  4.73646E-09  2.65520E-08  7.42574E-09
 -196.0000  9.88424E-09  3.27046E-09  5.85228E-11  7.01302E-09  1.02802E-08  1.73517E-08  5.75672E-09  2.72359E-08  9.02718E-09
 -195.2000  1.01469E-08  3.86708E-09  6.03586E-11  7.19585E-09  1.05364E-08  1.77926E-08  6.80291E-09  2.79395E-08  1.06700E-08
 -194.4000  1.04172E-08  4.47960E-09  6.22571E-11  7.38393E-09  1.07998E-08  1.82460E-08  7.87575E-09  2.86632E-08  1.23554E-08
 -193.6000  1.06956E-08  5.10850E-09  6.42207E-11  7.57745E-09  1.10704E-08  1.87121E-08  8.97601E-09  2.94078E-08  1.40845E-08
 -192.8000  1.09823E-08  5.75425E-09  6.62519E-11  7.77656E-09  1.13487E-08  1.91915E-08  1.01044E-08  3.01738E-08  1.58587E-08
 -192.0000  1.12776E-08  6.41736E-09  6.83533E-11  7.98146E-09  1.16346E-08  1.96844E-08  1.12619E-08  3.09620E-08  1.76792E-08
 -191.2000  1.15817E-08  7.09835E-09  7.05274E-11  8.19233E-09  1.19286E-08  2.01915E-08  1.24491E-08  3.17731E-08  1.95474E-08
 -190.4000  1.18949E-08  7.79776E-09  7.27769E-11  8.40935E-09  1.22308E-08  2.07130E-08  1.36670E-08  3.26079E-08  2.14648E-08
 -189.6000  1.22176E-08  8.51614E-09  7.51049E-11  8.63274E-09  1.25416E-08  2.12494E-08  1.49164E-08  3.34671E-08  2.34326E-08
 -188.8000  1.25501E-08  9.25407E-09  7.75141E-11  8.86269E-09  1.28612E-08  2.18014E-08  1.61983E-08  3.43514E-08  2.54524E-08
 -188.0000  1.28926E-08  1.00121E-08  8.00078E-11  9.09942E-09  1.31898E-08  2.23692E-08  1.75136E-08  3.52618E-08  2.75258E-08
 -187.2000  1.32456E-08  1.07910E-08  8.25892E-11  9.34315E-09  1.35277E-08  2.29535E-08  1.88633E-08  3.61991E-08  2.96542E-08
 -186.4000  1.36094E-08  1.15912E-08  8.52616E-11  9.59412E-09  1.38754E-08  2.35547E-08  2.02483E-08  3.71642E-08  3.18395E-08
 -185.6000  1.39844E-08  1.24135E-08  8.80286E-11  9.85256E-09  1.42329E-08  2.41735E-08  2.16696E-08  3.81579E-08  3.40831E-08
 -184.8000  1.43709E-08  1.32585E-08  9.08938E-11  1.01187E-08  1.46008E-08  2.48104E-08  2.31285E-08  3.91813E-08  3.63869E-08
 -184.0000  1.47694E-08  1.41269E-08  9.38609E-11  1.03928E-08  1.49793E-08  2.54660E-08  2.46258E-08  4.02353E-08  3.87527E-08
 -183.2000  1.51802E-08  1.50195E-08  9.69340E-11  1.06752E-08  1.53687E-08  2.61408E-08  2.61629E-08  4.13210E-08  4.11823E-08
 -182.4000  1.56038E-08  1.59369E-08  1.00117E-10  1.09661E-08  1.57694E-08  2.68356E-08  2.77408E-08  4.24394E-08  4.36777E-08
 -181.6000  1.60407E-08  1.68801E-08  1.03415E-10  1.12658E-08  1.61818E-08  2.75510E-08  2.93608E-08  4.35916E-08  4.62409E-08
 -180.8000  1.64912E-08  1.78498E-08  1.06831E-10  1.15746E-08  1.66062E-08  2.82876E-08  3.10240E-08  4.47788E-08  4.88738E-08
 -180.0000  1.69559E-08  1.88468E-08  1.10372E-10  1.18927E-08  1.70431E-08  2.90462E-08  3.27319E-08  4.60021E-08  5.15787E-08
 -179.2000  1.74354E-08  1.98719E-08  1.14040E-10  1.22206E-08  1.74928E-08  2.98275E-08  3.44857E-08  4.72628E-08  5.43577E-08
 -178.4000  1.79300E-08  2.09262E-08  1.17842E-10  1.25586E-08  1.79558E-08  3.06322E-08  3.62869E-08  4.85622E-08  5.72131E-08
 -177.6000  1.84403E-08  2.20105E-08  1.21784E-10  1.29069E-08  1.84325E-08  3.14613E-08  3.81368E-08  4.99016E-08  6.01473E-08
 -176.8000  1.89670E-08  2.31257E-08  1.25869E-10  1.32660E-08  1.89234E-08  3.23153E-08  4.00369E-08  5.12823E-08  6.31626E-08
 -176.0000  1.95106E-08  2.42729E-08  1.30105E-10  1.36363E-08  1.94290E-08  3.31953E-08  4.19887E-08  5.27059E-08  6.62617E-08
 -175.2000  2.00716E-08  2.54531E-08  1.34497E-10  1.40180E-08  1.99496E-08  3.41021E-08  4.39939E-08  5.41737E-08  6.94470E-08
 -174.4000  2.06508E-08  2.66674E-08  1.39052E-10  1.44116E-08  2.04859E-08  3.50366E-08  4.60540E-08  5.56874E-08  7.27214E-08
 -173.6000  2.12488E-08  2.79168E-08  1.43776E-10  1.48176E-08  2.10384E-08  3.59997E-08  4.81708E-08  5.72485E-08  7.60875E-08
 -172.8000  2.18662E-08  2.92025E-08  1.48676E-10  1.52363E-08  2.16076E-08  3.69925E-08  5.03459E-08  5.88587E-08  7.95483E-08
 -172.0000  2.25039E-08  3.05257E-08  1.53760E-10  1.56681E-08  2.21940E-08  3.80159E-08  5.25812E-08  6.05198E-08  8.31068E-08
 -171.2000  2.31624E-08  3.18876E-08  1.59034E-10  1.61137E-08  2.27984E-08  3.90711E-08  5.48785E-08  6.22335E-08  8.67661E-08
 -170.4000  2.38427E-08  3.32895E-08  1.64507E-10  1.65734E-08  2.34212E-08  4.01590E-08  5.72398E-08  6.40017E-08  9.05293E-08
 -169.6000  2.45455E-08  3.47328E-08  1.70187E-10  1.70477E-08  2.40631E-08  4.12810E-08  5.96671E-08  6.58264E-08  9.43999E-08
 -168.8000  2.52716E-08  3.62187E-08  1.76082E-10  1.75372E-08  2.47248E-08  4.24380E-08  6.21624E-08  6.77096E-08  9.83811E-08
 -168.0000  2.60219E-08  3.77488E-08  1.82201E-10  1.80424E-08  2.54069E-08  4.36315E-08  6.47279E-08  6.96534E-08  1.02477E-07
 -167.2000  2.67973E-08  3.93244E-08  1.88555E-10  1.85638E-08  2.61103E-08  4.48626E-08  6.73658E-08  7.16599E-08  1.06690E-07
 -166.4000  2.75988E-08  4.09472E-08  1.95151E-10  1.91021E-08  2.68355E-08  4.61327E-08  7.00783E-08  7.37316E-08  1.11026E-07
 -165.6000  2.84274E-08  4.26187E-08  2.02002E-10  1.96578E-08  2.75834E-08  4.74432E-08  7.28679E-08  7.58707E-08  1.15487E-07
 -164.8000  2.92841E-08  4.43406E-08  2.09117E-10  2.02317E-08  2.83548E-08  4.87956E-08  7.57371E-08  7.80797E-08  1.20078E-07
 -164.0000  3.01699E-08  4.61145E-08  2.16508E-10  2.08243E-08  2.91504E-08  5.01912E-08  7.86882E-08  8.03611E-08  1.24803E-07
 -163.2000  3.10860E-08  4.79424E-08  2.24186E-10  2.14363E-08  2.99713E-08  5.16318E-08  8.17241E-08  8.27178E-08  1.29666E-07
 -162.4000  3.20336E-08  4.98259E-08  2.32164E-10  2.20685E-08  3.08182E-08  5.31188E-08  8.48475E-08  8.51524E-08  1.34673E-07
 -161.6000  3.30138E-08  5.17671E-08  2.40455E-10  2.27215E-08  3.16920E-08  5.46540E-08  8.80611E-08  8.76678E-08  1.39828E-07
 -160.8000  3.40279E-08  5.37679E-08  2.49071E-10  2.33963E-08  3.25939E-08  5.62392E-08  9.13679E-08  9.02672E-08  1.45136E-07
 -160.0000  3.50773E-08  5.58304E-08  2.58028E-10  2.40935E-08  3.35247E-08  5.78762E-08  9.47709E-08  9.29535E-08  1.50601E-07
 -159.2000  3.61634E-08  5.79568E-08  2.67339E-10  2.48139E-08  3.44855E-08  5.95668E-08  9.82734E-08  9.57302E-08  1.56230E-07
 -158.4000  3.72875E-08  6.01492E-08  2.77021E-10  2.55586E-08  3.54775E-08  6.13131E-08  1.01879E-07  9.86006E-08  1.62028E-07
 -157.6000  3.84513E-08  6.24101E-08  2.87089E-10  2.63284E-08  3.65016E-08  6.31171E-08  1.05590E-07  1.01568E-07  1.68000E-07
 -156.8000  3.96562E-08  6.47419E-08  2.97560E-10  2.71242E-08  3.75592E-08  6.49810E-08  1.09411E-07  1.04637E-07  1.74152E-07
 -156.0000  4.09039E-08  6.71470E-08  3.08453E-10  2.79470E-08  3.86514E-08  6.69069E-08  1.13345E-07  1.07811E-07  1.80492E-07
 -155.2000  4.21962E-08  6.96281E-08  3.19785E-10  2.87979E-08  3.97796E-08  6.88973E-08  1.17396E-07  1.11093E-07  1.87024E-07
 -154.4000  4.35348E-08  7.21879E-08  3.31577E-10  2.96779E-08  4.09451E-08  7.09545E-08  1.21568E-07  1.14489E-07  1.93756E-07
 -153.6000  4.49216E-08  7.48292E-08  3.43848E-10  3.05881E-08  4.21492E-08  7.30811E-08  1.25865E-07  1.18003E-07  2.00694E-07
 -152.8000  4.63587E-08  7.75550E-08  3.56621E-10  3.15298E-08  4.33934E-08  7.52798E-08  1.30291E-07  1.21638E-07  2.07846E-07
 -152.0000  4.78479E-08  8.03684E-08  3.69918E-10  3.25040E-08  4.46793E-08  7.75532E-08  1.34851E-07  1.25401E-07  2.15220E-07
 -151.2000  4.93915E-08  8.32726E-08  3.83762E-10  3.35122E-08  4.60083E-08  7.99042E-08  1.39550E-07  1.29296E-07  2.22822E-07
 -150.4000  5.09918E-08  8.62709E-08  3.98178E-10  3.45556E-08  4.73821E-08  8.23359E-08  1.44391E-07  1.33328E-07  2.30662E-07
 -149.6000  5.26511E-08  8.93667E-08  4.13193E-10  3.56356E-08  4.88025E-08  8.48513E-08  1.49380E-07  1.37502E-07  2.38747E-07
 -148.8000  5.43718E-08  9.25637E-08  4.28833E-10  3.67537E-08  5.02712E-08  8.74537E-08  1.54522E-07  1.41826E-07  2.47086E-07
 -148.0000  5.61566E-08  9.58657E-08  4.45128E-10  3.79113E-08  5.17901E-08  9.01465E-08  1.59823E-07  1.46303E-07  2.55688E-07
 -147.2000  5.80081E-08  9.92765E-08  4.62108E-10  3.91100E-08  5.33612E-08  9.29333E-08  1.65287E-07  1.50941E-07  2.64564E-07
 -146.4000  5.99291E-08  1.02800E-07  4.79803E-10  4.03515E-08  5.49863E-08  9.58177E-08  1.70921E-07  1.55747E-07  2.73721E-07
 -145.6000  6.19227E-08  1.06441E-07  4.98249E-10  4.16375E-08  5.66678E-08  9.88035E-08  1.76731E-07  1.60726E-07  2.83172E-07
 -144.8000  6.39920E-08  1.10204E-07  5.17479E-10  4.29698E-08  5.84077E-08  1.01895E-07  1.82722E-07  1.65887E-07  2.92926E-07
 -144.0000  6.61401E-08  1.14093E-07  5.37530E-10  4.43503E-08  6.02084E-08  1.05096E-07  1.88901E-07  1.71236E-07  3.02994E-07
 -143.2000  6.83706E-08  1.18113E-07  5.58442E-10  4.57809E-08  6.20722E-08  1.08412E-07  1.95276E-07  1.76782E-07  3.13389E-07
 -142.4000  7.06870E-08  1.22269E-07  5.80255E-10  4.72637E-08  6.40018E-08  1.11846E-07  2.01852E-07  1.82533E-07  3.24122E-07
 -141.6000  7.30930E-08  1.26567E-07  6.03011E-10  4.88008E-08  6.59997E-08  1.15403E-07  2.08638E-07  1.88496E-07  3.35205E-07
 -140.8000  7.55926E-08  1.31012E-07  6.26756E-10  5.03944E-08  6.80686E-08  1.19090E-07  2.15640E-07  1.94682E-07  3.46652E-07
 -140.0000  7.81900E-08  1.35609E-07  6.51537E-10  5.20470E-08  7.02114E-08  1.22910E-07  2.22867E-07  2.01100E-07  3.58477E-07
 -139.2000  8.08895E-08  1.40366E-07  6.77404E-10  5.37610E-08  7.24312E-08  1.26870E-07  2.30327E-07  2.07759E-07  3.70693E-07
 -138.4000  8.36956E-08  1.45287E-07  7.04410E-10  5.55389E-08  7.47311E-08  1.30974E-07  2.38028E-07  2.14670E-07  3.83315E-07
 -137.6000  8.66133E-08  1.50380E-07  7.32611E-10  5.73835E-08  7.71143E-08  1.35230E-07  2.45980E-07  2.21844E-07  3.96359E-07
 -136.8000  8.96473E-08  1.55651E-07  7.62063E-10  5.92975E-08  7.95843E-08  1.39644E-07  2.54190E-07  2.29291E-07  4.09841E-07
 -136.0000  9.28031E-08  1.61107E-07  7.92829E-10  6.12839E-08  8.21446E-08  1.44221E-07  2.62671E-07  2.37024E-07  4.23778E-07
 -135.2000  9.60863E-08  1.66757E-07  8.24975E-10  6.33458E-08  8.47990E-08  1.48970E-07  2.71430E-07  2.45056E-07  4.38187E-07
 -134.4000  9.95028E-08  1.72608E-07  8.58567E-10  6.54865E-08  8.75515E-08  1.53897E-07  2.80479E-07  2.53399E-07  4.53087E-07
 -133.6000  1.03059E-07  1.78668E-07  8.93679E-10  6.77094E-08  9.04063E-08  1.59009E-07  2.89828E-07  2.62068E-07  4.68496E-07
 -132.8000  1.06760E-07  1.84945E-07  9.30386E-10  7.00180E-08  9.33675E-08  1.64316E-07  2.99490E-07  2.71076E-07  4.84435E-07
 -132.0000  1.10615E-07  1.91449E-07  9.68767E-10  7.24160E-08  9.64396E-08  1.69824E-07  3.09475E-07  2.80439E-07  5.00924E-07
 -131.2000  1.14629E-07  1.98189E-07  1.00891E-09  7.49074E-08  9.96275E-08  1.75544E-07  3.19797E-07  2.90173E-07  5.17986E-07
 -130.4000  1.18811E-07  2.05175E-07  1.05090E-09  7.74963E-08  1.02936E-07  1.81483E-07  3.30468E-07  3.00294E-07  5.35643E-07
 -129.6000  1.23168E-07  2.12417E-07  1.09483E-09  8.01871E-08  1.06371E-07  1.87653E-07  3.41502E-07  3.10820E-07  5.53919E-07
 -128.8000  1.27709E-07  2.19926E-07  1.14081E-09  8.29842E-08  1.09937E-07  1.94062E-07  3.52913E-07  3.21770E-07  5.72839E-07
 -128.0000  1.32442E-07  2.27714E-07  1.18894E-09  8.58925E-08  1.13640E-07  2.00721E-07  3.64715E-07  3.33164E-07  5.92429E-07
 -127.2000  1.37378E-07  2.35791E-07  1.23933E-09  8.89168E-08  1.17486E-07  2.07642E-07  3.76924E-07  3.45020E-07  6.12715E-07
 -126.4000  1.42525E-07  2.44172E-07  1.29209E-09  9.20625E-08  1.21482E-07  2.14836E-07  3.89556E-07  3.57361E-07  6.33728E-07
 -125.6000  1.47895E-07  2.52868E-07  1.34736E-09  9.53352E-08  1.25633E-07  2.22316E-07  4.02628E-07  3.70211E-07  6.55496E-07
 -124.8000  1.53498E-07  2.61893E-07  1.40526E-09  9.87406E-08  1.29948E-07  2.30094E-07  4.16157E-07  3.83592E-07  6.78051E-07
 -124.0000  1.59346E-07  2.71263E-07  1.46593E-09  1.02285E-07  1.34433E-07  2.38184E-07  4.30162E-07  3.97530E-07  7.01425E-07
 -123.2000  1.65451E-07  2.80991E-07  1.52952E-09  1.05974E-07  1.39096E-07  2.46600E-07  4.44662E-07  4.12051E-07  7.25653E-07
 -122.4000  1.71825E-07  2.91094E-07  1.59619E-09  1.09816E-07  1.43945E-07  2.55357E-07  4.59677E-07  4.27183E-07  7.50771E-07
 -121.6000  1.78484E-07  3.01589E-07  1.66610E-09  1.13816E-07  1.48989E-07  2.64472E-07  4.75228E-07  4.42956E-07  7.76816E-07
 -120.8000  1.85441E-07  3.12492E-07  1.73942E-09  1.17984E-07  1.54236E-07  2.73959E-07  4.91336E-07  4.59400E-07  8.03828E-07
 -120.0000  1.92711E-07  3.23824E-07  1.81635E-09  1.22326E-07  1.59696E-07  2.83838E-07  5.08025E-07  4.76550E-07  8.31849E-07
 -119.2000  2.00311E-07  3.35602E-07  1.89708E-09  1.26850E-07  1.65379E-07  2.94127E-07  5.25320E-07  4.94438E-07  8.60921E-07
 -118.4000  2.08258E-07  3.47847E-07  1.98181E-09  1.31566E-07  1.71295E-07  3.04843E-07  5.43244E-07  5.13101E-07  8.91091E-07
 -117.6000  2.16570E-07  3.60581E-07  2.07076E-09  1.36483E-07  1.77455E-07  3.16009E-07  5.61825E-07  5.32579E-07  9.22406E-07
 -116.8000  2.25266E-07  3.73826E-07  2.16419E-09  1.41611E-07  1.83871E-07  3.27646E-07  5.81090E-07  5.52911E-07  9.54917E-07
 -116.0000  2.34367E-07  3.87607E-07  2.26232E-09  1.46959E-07  1.90554E-07  3.39776E-07  6.01069E-07  5.74142E-07  9.88676E-07
 -115.2000  2.43894E-07  4.01948E-07  2.36543E-09  1.52539E-07  1.97519E-07  3.52423E-07  6.21791E-07  5.96317E-07  1.02374E-06
 -114.4000  2.53869E-07  4.16875E-07  2.47379E-09  1.58362E-07  2.04776E-07  3.65612E-07  6.43289E-07  6.19482E-07  1.06016E-06
 -113.6000  2.64319E-07  4.32417E-07  2.58771E-09  1.64441E-07  2.12343E-07  3.79371E-07  6.65595E-07  6.43690E-07  1.09801E-06
 -112.8000  2.75268E-07  4.48602E-07  2.70749E-09  1.70787E-07  2.20232E-07  3.93727E-07  6.88746E-07  6.68994E-07  1.13735E-06
 -112.0000  2.86744E-07  4.65462E-07  2.83349E-09  1.77414E-07  2.28462E-07  4.08709E-07  7.12778E-07  6.95453E-07  1.17824E-06
 -111.2000  2.98776E-07  4.83030E-07  2.96606E-09  1.84338E-07  2.37047E-07  4.24350E-07  7.37729E-07  7.23127E-07  1.22076E-06
 -110.4000  3.11394E-07  5.01340E-07  3.10557E-09  1.91571E-07  2.46005E-07  4.40682E-07  7.63640E-07  7.52076E-07  1.26498E-06
 -109.6000  3.24632E-07  5.20428E-07  3.25243E-09  1.99131E-07  2.55356E-07  4.57739E-07  7.90555E-07  7.82372E-07  1.31098E-06
 -108.8000  3.38526E-07  5.40333E-07  3.40709E-09  2.07035E-07  2.65118E-07  4.75561E-07  8.18518E-07  8.14087E-07  1.35885E-06
 -108.0000  3.53113E-07  5.61095E-07  3.56999E-09  2.15300E-07  2.75314E-07  4.94185E-07  8.47575E-07  8.47298E-07  1.40867E-06
 -107.2000  3.68432E-07  5.82759E-07  3.74163E-09  2.23946E-07  2.85965E-07  5.13653E-07  8.77777E-07  8.82085E-07  1.46054E-06
 -106.4000  3.84524E-07  6.05368E-07  3.92252E-09  2.32991E-07  2.97094E-07  5.34007E-07  9.09176E-07  9.18531E-07  1.51454E-06
 -105.6000  4.01436E-07  6.28972E-07  4.11324E-09  2.42457E-07  3.08726E-07  5.55296E-07  9.41827E-07  9.56732E-07  1.57080E-06
 -104.8000  4.19216E-07  6.53622E-07  4.31437E-09  2.52368E-07  3.20887E-07  5.77569E-07  9.75788E-07  9.96785E-07  1.62941E-06
 -104.0000  4.37917E-07  6.79371E-07  4.52655E-09  2.62746E-07  3.33605E-07  6.00878E-07  1.01112E-06  1.03879E-06  1.69049E-06
 -103.2000  4.57592E-07  7.06277E-07  4.75047E-09  2.73617E-07  3.46910E-07  6.25278E-07  1.04788E-06  1.08287E-06  1.75416E-06
 -102.4000  4.78297E-07  7.34400E-07  4.98681E-09  2.85006E-07  3.60831E-07  6.50825E-07  1.08615E-06  1.12912E-06  1.82055E-06
 -101.6000  5.00098E-07  7.63805E-07  5.23640E-09  2.96945E-07  3.75403E-07  6.77585E-07  1.12599E-06  1.17768E-06  1.88980E-06
 -100.8000  5.23063E-07  7.94561E-07  5.50004E-09  3.09462E-07  3.90661E-07  7.05623E-07  1.16748E-06  1.22869E-06  1.96204E-06
 -100.0000  5.47263E-07  8.26739E-07  5.77862E-09  3.22590E-07  4.06642E-07  7.35011E-07  1.21070E-06  1.28227E-06  2.03744E-06
  -99.2000  5.72773E-07  8.60418E-07  6.07308E-09  3.36361E-07  4.23385E-07  7.65820E-07  1.25573E-06  1.33859E-06  2.11615E-06
  -98.4000  5.99674E-07  8.95678E-07  6.38444E-09  3.50814E-07  4.40931E-07  7.98130E-07  1.30266E-06  1.39780E-06  2.19834E-06
  -97.6000  6.28058E-07  9.32607E-07  6.71379E-09  3.65987E-07  4.59327E-07  8.32027E-07  1.35158E-06  1.46009E-06  2.28419E-06
  -96.8000  6.58019E-07  9.71298E-07  7.06231E-09  3.81921E-07  4.78619E-07  8.67602E-07  1.40260E-06  1.52562E-06  2.37389E-06
  -96.0000  6.89657E-07  1.01185E-06  7.43122E-09  3.98660E-07  4.98858E-07  9.04949E-07  1.45581E-06  1.59461E-06  2.46765E-06
  -95.2000  7.23077E-07  1.05436E-06  7.82185E-09  4.16249E-07  5.20096E-07  9.44167E-07  1.51132E-06  1.66724E-06  2.56569E-06
  -94.4000  7.58401E-07  1.09896E-06  8.23567E-09  4.34739E-07  5.42392E-07  9.85367E-07  1.56926E-06  1.74377E-06  2.66822E-06
  -93.6000  7.95755E-07  1.14575E-06  8.67421E-09  4.54185E-07  5.65808E-07  1.02867E-06  1.62974E-06  1.82442E-06  2.77549E-06
  -92.8000  8.35275E-07  1.19486E-06  9.13914E-09  4.74642E-07  5.90407E-07  1.07419E-06  1.69291E-06  1.90946E-06  2.88777E-06
  -92.0000  8.77101E-07  1.24643E-06  9.63220E-09  4.96170E-07  6.16258E-07  1.12206E-06  1.75888E-06  1.99916E-06  3.00532E-06
  -91.2000  9.21389E-07  1.30061E-06  1.01553E-08  5.18834E-07  6.43435E-07  1.17242E-06  1.82782E-06  2.09381E-06  3.12843E-06
  -90.4000  9.68316E-07  1.35755E-06  1.07106E-08  5.42704E-07  6.72018E-07  1.22543E-06  1.89987E-06  2.19375E-06  3.25742E-06
  -89.6000  1.01806E-06  1.41741E-06  1.13002E-08  5.67854E-07  7.02092E-07  1.28125E-06  1.97521E-06  2.29931E-06  3.39262E-06
  -88.8000  1.07082E-06  1.48037E-06  1.19266E-08  5.94363E-07  7.33746E-07  1.34004E-06  2.05400E-06  2.41086E-06  3.53437E-06
  -88.0000  1.12680E-06  1.54662E-06  1.25923E-08  6.22312E-07  7.67073E-07  1.40198E-06  2.13644E-06  2.52878E-06  3.68306E-06
  -87.2000  1.18624E-06  1.61637E-06  1.33000E-08  6.51796E-07  8.02180E-07  1.46728E-06  2.22271E-06  2.65351E-06  3.83909E-06
  -86.4000  1.24938E-06  1.68984E-06  1.40529E-08  6.82913E-07  8.39179E-07  1.53615E-06  2.31303E-06  2.78553E-06  4.00287E-06
  -85.6000  1.31650E-06  1.76725E-06  1.48541E-08  7.15767E-07  8.78187E-07  1.60881E-06  2.40763E-06  2.92531E-06  4.17488E-06
  -84.8000  1.38788E-06  1.84885E-06  1.57070E-08  7.50463E-07  9.19324E-07  1.68549E-06  2.50674E-06  3.07337E-06  4.35559E-06
  -84.0000  1.46383E-06  1.93492E-06  1.66156E-08  7.87128E-07  9.62732E-07  1.76648E-06  2.61060E-06  3.23031E-06  4.54553E-06
  -83.2000  1.54472E-06  2.02575E-06  1.75838E-08  8.25892E-07  1.00856E-06  1.85203E-06  2.71950E-06  3.39675E-06  4.74525E-06
  -82.4000  1.63091E-06  2.12165E-06  1.86162E-08  8.66892E-07  1.05696E-06  1.94247E-06  2.83372E-06  3.57337E-06  4.95536E-06
  -81.6000  1.72278E-06  2.22294E-06  1.97174E-08  9.10273E-07  1.10809E-06  2.03808E-06  2.95355E-06  3.76086E-06  5.17650E-06
  -80.8000  1.82079E-06  2.33000E-06  2.08926E-08  9.56199E-07  1.16215E-06  2.13924E-06  3.07934E-06  3.96003E-06  5.40934E-06
  -80.0000  1.92543E-06  2.44322E-06  2.21476E-08  1.00485E-06  1.21933E-06  2.24632E-06  3.21142E-06  4.17175E-06  5.65464E-06
  -79.2000  2.03723E-06  2.56300E-06  2.34885E-08  1.05640E-06  1.27983E-06  2.35972E-06  3.35017E-06  4.39695E-06  5.91317E-06
  -78.4000  2.15671E-06  2.68982E-06  2.49216E-08  1.11106E-06  1.34388E-06  2.47985E-06  3.49598E-06  4.63657E-06  6.18580E-06
  -77.6000  2.28454E-06  2.82415E-06  2.64544E-08  1.16903E-06  1.41172E-06  2.60721E-06  3.64928E-06  4.89175E-06  6.47343E-06
  -76.8000  2.42139E-06  2.96652E-06  2.80947E-08  1.23058E-06  1.48362E-06  2.74229E-06  3.81053E-06  5.16368E-06  6.77705E-06
