    Energy      s          Int(s)         px           py           pz           p          Int(p)       total      Int(total) 
 -200.0000  2.60485E-09  1.53163E-10  3.05653E-11  2.47603E-09  2.47377E-09  4.98037E-09  2.92841E-10  7.58523E-09  4.46003E-10
 -199.2000  2.68271E-09  3.10903E-10  3.15538E-11  2.54627E-09  2.54443E-09  5.12225E-09  5.94023E-10  7.80496E-09  9.04927E-10
 -198.4000  2.76309E-09  4.73370E-10  3.25767E-11  2.61865E-09  2.61726E-09  5.26848E-09  9.03804E-10  8.03157E-09  1.37717E-09
 -197.6000  2.84607E-09  6.40715E-10  3.36352E-11  2.69325E-09  2.69233E-09  5.41922E-09  1.22245E-09  8.26528E-09  1.86316E-09
 -196.8000  2.93174E-09  8.13098E-10  3.47306E-11  2.77015E-09  2.76972E-09  5.57460E-09  1.55023E-09  8.50634E-09  2.36333E-09
 -196.0000  3.02020E-09  9.90683E-10  3.58645E-11  2.84942E-09  2.84951E-09  5.73480E-09  1.88743E-09  8.75499E-09  2.87811E-09
 -195.2000  3.11155E-09  1.17364E-09  3.70381E-11  2.93114E-09  2.93178E-09  5.89996E-09  2.23434E-09  9.01151E-09  3.40798E-09
 -194.4000  3.20589E-09  1.36214E-09  3.82530E-11  3.01540E-09  3.01661E-09  6.07026E-09  2.59127E-09  9.27615E-09  3.95341E-09
 -193.6000  3.30332E-09  1.55637E-09  3.95108E-11  3.10228E-09  3.10408E-09  6.24587E-09  2.95852E-09  9.54920E-09  4.51489E-09
 -192.8000  3.40397E-09  1.75652E-09  4.08132E-11  3.19187E-09  3.19430E-09  6.42698E-09  3.33642E-09  9.83095E-09  5.09294E-09
 -192.0000  3.50795E-09  1.96279E-09  4.21618E-11  3.28426E-09  3.28735E-09  6.61376E-09  3.72530E-09  1.01217E-08  5.68808E-09
 -191.2000  3.61536E-09  2.17537E-09  4.35584E-11  3.37954E-09  3.38332E-09  6.80642E-09  4.12551E-09  1.04218E-08  6.30087E-09
 -190.4000  3.72635E-09  2.39447E-09  4.50048E-11  3.47782E-09  3.48233E-09  7.00516E-09  4.53740E-09  1.07315E-08  6.93187E-09
 -189.6000  3.84104E-09  2.62032E-09  4.65030E-11  3.57920E-09  3.58447E-09  7.21017E-09  4.96135E-09  1.10512E-08  7.58167E-09
 -188.8000  3.95956E-09  2.85314E-09  4.80551E-11  3.68379E-09  3.68984E-09  7.42169E-09  5.39774E-09  1.13812E-08  8.25088E-09
 -188.0000  4.08205E-09  3.09316E-09  4.96630E-11  3.79169E-09  3.79858E-09  7.63993E-09  5.84696E-09  1.17220E-08  8.94012E-09
 -187.2000  4.20867E-09  3.34062E-09  5.13290E-11  3.90303E-09  3.91078E-09  7.86514E-09  6.30942E-09  1.20738E-08  9.65005E-09
 -186.4000  4.33956E-09  3.59578E-09  5.30553E-11  4.01791E-09  4.02657E-09  8.09754E-09  6.78555E-09  1.24371E-08  1.03813E-08
 -185.6000  4.47487E-09  3.85890E-09  5.48443E-11  4.13647E-09  4.14608E-09  8.33740E-09  7.27578E-09  1.28123E-08  1.11347E-08
 -184.8000  4.61478E-09  4.13025E-09  5.66985E-11  4.25883E-09  4.26944E-09  8.58497E-09  7.78057E-09  1.31998E-08  1.19108E-08
 -184.0000  4.75946E-09  4.41010E-09  5.86204E-11  4.38513E-09  4.39678E-09  8.84053E-09  8.30038E-09  1.36000E-08  1.27105E-08
 -183.2000  4.90908E-09  4.69875E-09  6.06128E-11  4.51550E-09  4.52824E-09  9.10436E-09  8.83571E-09  1.40134E-08  1.35345E-08
 -182.4000  5.06382E-09  4.99649E-09  6.26784E-11  4.65010E-09  4.66397E-09  9.37674E-09  9.38705E-09  1.44406E-08  1.43835E-08
 -181.6000  5.22389E-09  5.30365E-09  6.48201E-11  4.78906E-09  4.80412E-09  9.65799E-09  9.95493E-09  1.48819E-08  1.52586E-08
 -180.8000  5.38947E-09  5.62055E-09  6.70411E-11  4.93254E-09  4.94884E-09  9.94842E-09  1.05399E-08  1.53379E-08  1.61604E-08
 -180.0000  5.56079E-09  5.94752E-09  6.93445E-11  5.08071E-09  5.09831E-09  1.02484E-08  1.11425E-08  1.58092E-08  1.70900E-08
 -179.2000  5.73805E-09  6.28491E-09  7.17335E-11  5.23373E-09  5.25269E-09  1.05582E-08  1.17633E-08  1.62962E-08  1.80482E-08
 -178.4000  5.92149E-09  6.63308E-09  7.42117E-11  5.39178E-09  5.41215E-09  1.08781E-08  1.24029E-08  1.67996E-08  1.90360E-08
 -177.6000  6.11134E-09  6.99242E-09  7.67827E-11  5.55504E-09  5.57689E-09  1.12087E-08  1.30620E-08  1.73200E-08  2.00544E-08
 -176.8000  6.30785E-09  7.36332E-09  7.94502E-11  5.72369E-09  5.74709E-09  1.15502E-08  1.37411E-08  1.78581E-08  2.11044E-08
 -176.0000  6.51127E-09  7.74617E-09  8.22183E-11  5.89794E-09  5.92294E-09  1.19031E-08  1.44410E-08  1.84144E-08  2.21872E-08
 -175.2000  6.72187E-09  8.14141E-09  8.50909E-11  6.07798E-09  6.10467E-09  1.22677E-08  1.51623E-08  1.89896E-08  2.33037E-08
 -174.4000  6.93993E-09  8.54947E-09  8.80725E-11  6.26403E-09  6.29248E-09  1.26446E-08  1.59058E-08  1.95845E-08  2.44553E-08
 -173.6000  7.16574E-09  8.97081E-09  9.11675E-11  6.45631E-09  6.48659E-09  1.30341E-08  1.66722E-08  2.01998E-08  2.56430E-08
 -172.8000  7.39961E-09  9.40590E-09  9.43806E-11  6.65504E-09  6.68724E-09  1.34367E-08  1.74623E-08  2.08363E-08  2.68682E-08
 -172.0000  7.64185E-09  9.85523E-09  9.77167E-11  6.86047E-09  6.89467E-09  1.38529E-08  1.82768E-08  2.14947E-08  2.81320E-08
 -171.2000  7.89278E-09  1.03193E-08  1.01181E-10  7.07284E-09  7.10913E-09  1.42832E-08  1.91166E-08  2.21759E-08  2.94360E-08
 -170.4000  8.15277E-09  1.07987E-08  1.04779E-10  7.29242E-09  7.33088E-09  1.47281E-08  1.99826E-08  2.28808E-08  3.07813E-08
 -169.6000  8.42216E-09  1.12939E-08  1.08515E-10  7.51946E-09  7.56019E-09  1.51882E-08  2.08757E-08  2.36103E-08  3.21696E-08
 -168.8000  8.70133E-09  1.18055E-08  1.12397E-10  7.75426E-09  7.79736E-09  1.56640E-08  2.17967E-08  2.43653E-08  3.36022E-08
 -168.0000  8.99067E-09  1.23342E-08  1.16430E-10  7.99710E-09  8.04267E-09  1.61562E-08  2.27467E-08  2.51469E-08  3.50808E-08
 -167.2000  9.29058E-09  1.28805E-08  1.20621E-10  8.24828E-09  8.29642E-09  1.66653E-08  2.37266E-08  2.59559E-08  3.66070E-08
 -166.4000  9.60151E-09  1.34450E-08  1.24975E-10  8.50812E-09  8.55895E-09  1.71920E-08  2.47374E-08  2.67936E-08  3.81825E-08
 -165.6000  9.92389E-09  1.40285E-08  1.29501E-10  8.77695E-09  8.83059E-09  1.77370E-08  2.57804E-08  2.76609E-08  3.98089E-08
 -164.8000  1.02582E-08  1.46317E-08  1.34205E-10  9.05511E-09  9.11168E-09  1.83010E-08  2.68564E-08  2.85592E-08  4.14881E-08
 -164.0000  1.06049E-08  1.52553E-08  1.39096E-10  9.34296E-09  9.40259E-09  1.88846E-08  2.79668E-08  2.94895E-08  4.32221E-08
 -163.2000  1.09645E-08  1.59000E-08  1.44181E-10  9.64088E-09  9.70369E-09  1.94887E-08  2.91128E-08  3.04533E-08  4.50127E-08
 -162.4000  1.13376E-08  1.65666E-08  1.49469E-10  9.94925E-09  1.00154E-08  2.01141E-08  3.02954E-08  3.14517E-08  4.68620E-08
 -161.6000  1.17247E-08  1.72560E-08  1.54968E-10  1.02685E-08  1.03381E-08  2.07615E-08  3.15162E-08  3.24862E-08  4.87722E-08
 -160.8000  1.21263E-08  1.79690E-08  1.60688E-10  1.05990E-08  1.06722E-08  2.14318E-08  3.27764E-08  3.35581E-08  5.07454E-08
 -160.0000  1.25432E-08  1.87065E-08  1.66639E-10  1.09412E-08  1.10181E-08  2.21260E-08  3.40773E-08  3.46691E-08  5.27839E-08
 -159.2000  1.29759E-08  1.94695E-08  1.72830E-10  1.12956E-08  1.13765E-08  2.28449E-08  3.54206E-08  3.58207E-08  5.48901E-08
 -158.4000  1.34251E-08  2.02589E-08  1.79273E-10  1.16626E-08  1.17476E-08  2.35895E-08  3.68076E-08  3.70146E-08  5.70665E-08
 -157.6000  1.38914E-08  2.10757E-08  1.85978E-10  1.20428E-08  1.21321E-08  2.43609E-08  3.82400E-08  3.82523E-08  5.93157E-08
 -156.8000  1.43758E-08  2.19210E-08  1.92957E-10  1.24367E-08  1.25304E-08  2.51600E-08  3.97194E-08  3.95358E-08  6.16404E-08
 -156.0000  1.48787E-08  2.27958E-08  2.00222E-10  1.28448E-08  1.29431E-08  2.59881E-08  4.12475E-08  4.08669E-08  6.40433E-08
 -155.2000  1.54012E-08  2.37014E-08  2.07787E-10  1.32677E-08  1.33709E-08  2.68463E-08  4.28260E-08  4.22475E-08  6.65274E-08
 -154.4000  1.59440E-08  2.46389E-08  2.15665E-10  1.37059E-08  1.38142E-08  2.77358E-08  4.44569E-08  4.36798E-08  6.90957E-08
 -153.6000  1.65080E-08  2.56095E-08  2.23869E-10  1.41602E-08  1.42737E-08  2.86578E-08  4.61419E-08  4.51658E-08  7.17514E-08
 -152.8000  1.70942E-08  2.66147E-08  2.32416E-10  1.46311E-08  1.47501E-08  2.96137E-08  4.78832E-08  4.67078E-08  7.44978E-08
 -152.0000  1.77034E-08  2.76556E-08  2.41320E-10  1.51194E-08  1.52441E-08  3.06048E-08  4.96827E-08  4.83082E-08  7.73383E-08
 -151.2000  1.83367E-08  2.87338E-08  2.50597E-10  1.56256E-08  1.57563E-08  3.16326E-08  5.15426E-08  4.99693E-08  8.02764E-08
 -150.4000  1.89952E-08  2.98507E-08  2.60265E-10  1.61507E-08  1.62876E-08  3.26985E-08  5.34653E-08  5.16937E-08  8.33159E-08
 -149.6000  1.96799E-08  3.10078E-08  2.70343E-10  1.66952E-08  1.68387E-08  3.38043E-08  5.54529E-08  5.34842E-08  8.64608E-08
 -148.8000  2.03921E-08  3.22069E-08  2.80848E-10  1.72602E-08  1.74104E-08  3.49514E-08  5.75080E-08  5.53435E-08  8.97149E-08
 -148.0000  2.11330E-08  3.34495E-08  2.91802E-10  1.78463E-08  1.80036E-08  3.61417E-08  5.96331E-08  5.72747E-08  9.30826E-08
 -147.2000  2.19038E-08  3.47374E-08  3.03224E-10  1.84545E-08  1.86191E-08  3.73769E-08  6.18308E-08  5.92807E-08  9.65682E-08
 -146.4000  2.27059E-08  3.60725E-08  3.15137E-10  1.90857E-08  1.92580E-08  3.86589E-08  6.41039E-08  6.13647E-08  1.00176E-07
 -145.6000  2.35406E-08  3.74566E-08  3.27564E-10  1.97409E-08  1.99212E-08  3.99896E-08  6.64553E-08  6.35303E-08  1.03912E-07
 -144.8000  2.44096E-08  3.88919E-08  3.40530E-10  2.04210E-08  2.06097E-08  4.13712E-08  6.88879E-08  6.57808E-08  1.07780E-07
 -144.0000  2.53144E-08  4.03803E-08  3.54060E-10  2.11272E-08  2.13246E-08  4.28058E-08  7.14048E-08  6.81202E-08  1.11785E-07
 -143.2000  2.62565E-08  4.19242E-08  3.68181E-10  2.18605E-08  2.20670E-08  4.42957E-08  7.40093E-08  7.05522E-08  1.15934E-07
 -142.4000  2.72378E-08  4.35258E-08  3.82921E-10  2.26221E-08  2.28381E-08  4.58432E-08  7.67049E-08  7.30810E-08  1.20231E-07
 -141.6000  2.82600E-08  4.51874E-08  3.98311E-10  2.34133E-08  2.36391E-08  4.74507E-08  7.94949E-08  7.57107E-08  1.24682E-07
 -140.8000  2.93250E-08  4.69117E-08  4.14381E-10  2.42352E-08  2.44714E-08  4.91210E-08  8.23832E-08  7.84460E-08  1.29295E-07
 -140.0000  3.04349E-08  4.87012E-08  4.31165E-10  2.50893E-08  2.53362E-08  5.08567E-08  8.53735E-08  8.12916E-08  1.34075E-07
 -139.2000  3.15918E-08  5.05588E-08  4.48698E-10  2.59769E-08  2.62351E-08  5.26607E-08  8.84699E-08  8.42524E-08  1.39029E-07
 -138.4000  3.27978E-08  5.24873E-08  4.67016E-10  2.68995E-08  2.71694E-08  5.45359E-08  9.16766E-08  8.73337E-08  1.44164E-07
 -137.6000  3.40554E-08  5.44897E-08  4.86159E-10  2.78587E-08  2.81408E-08  5.64856E-08  9.49978E-08  9.05410E-08  1.49488E-07
 -136.8000  3.53669E-08  5.65692E-08  5.06166E-10  2.88559E-08  2.91508E-08  5.85129E-08  9.84383E-08  9.38798E-08  1.55008E-07
 -136.0000  3.67350E-08  5.87292E-08  5.27082E-10  2.98931E-08  3.02012E-08  6.06214E-08  1.02003E-07  9.73564E-08  1.60732E-07
 -135.2000  3.81624E-08  6.09731E-08  5.48951E-10  3.09718E-08  3.12939E-08  6.28146E-08  1.05696E-07  1.00977E-07  1.66669E-07
 -134.4000  3.96520E-08  6.33046E-08  5.71821E-10  3.20940E-08  3.24306E-08  6.50965E-08  1.09524E-07  1.04748E-07  1.72828E-07
 -133.6000  4.12069E-08  6.57275E-08  5.95744E-10  3.32617E-08  3.36134E-08  6.74709E-08  1.13491E-07  1.08678E-07  1.79219E-07
 -132.8000  4.28301E-08  6.82459E-08  6.20772E-10  3.44769E-08  3.48444E-08  6.99421E-08  1.17604E-07  1.12772E-07  1.85849E-07
 -132.0000  4.45252E-08  7.08639E-08  6.46961E-10  3.57417E-08  3.61257E-08  7.25144E-08  1.21867E-07  1.17040E-07  1.92731E-07
 -131.2000  4.62956E-08  7.35860E-08  6.74371E-10  3.70585E-08  3.74596E-08  7.51925E-08  1.26289E-07  1.21488E-07  1.99875E-07
 -130.4000  4.81451E-08  7.64169E-08  7.03065E-10  3.84296E-08  3.88486E-08  7.79813E-08  1.30874E-07  1.26126E-07  2.07291E-07
 -129.6000  5.00778E-08  7.93614E-08  7.33110E-10  3.98575E-08  4.02953E-08  8.08858E-08  1.35630E-07  1.30964E-07  2.14991E-07
 -128.8000  5.20977E-08  8.24247E-08  7.64575E-10  4.13448E-08  4.18022E-08  8.39116E-08  1.40564E-07  1.36009E-07  2.22988E-07
 -128.0000  5.42094E-08  8.56122E-08  7.97535E-10  4.28944E-08  4.33722E-08  8.70641E-08  1.45683E-07  1.41274E-07  2.31295E-07
 -127.2000  5.64174E-08  8.89295E-08  8.32067E-10  4.45091E-08  4.50082E-08  9.03493E-08  1.50995E-07  1.46767E-07  2.39925E-07
 -126.4000  5.87268E-08  9.23825E-08  8.68256E-10  4.61920E-08  4.67133E-08  9.37736E-08  1.56509E-07  1.52500E-07  2.48892E-07
 -125.6000  6.11428E-08  9.59777E-08  9.06188E-10  4.79463E-08  4.84909E-08  9.73435E-08  1.62233E-07  1.58486E-07  2.58211E-07
 -124.8000  6.36709E-08  9.97214E-08  9.45958E-10  4.97755E-08  5.03444E-08  1.01066E-07  1.68175E-07  1.64737E-07  2.67897E-07
 -124.0000  6.63170E-08  1.03621E-07  9.87662E-10  5.16832E-08  5.22774E-08  1.04948E-07  1.74346E-07  1.71265E-07  2.77967E-07
 -123.2000  6.90872E-08  1.07683E-07  1.03141E-09  5.36730E-08  5.42937E-08  1.08998E-07  1.80755E-07  1.78085E-07  2.88438E-07
 -122.4000  7.19882E-08  1.11916E-07  1.07730E-09  5.57489E-08  5.63973E-08  1.13224E-07  1.87413E-07  1.85212E-07  2.99329E-07
 -121.6000  7.50269E-08  1.16327E-07  1.12546E-09  5.79152E-08  5.85925E-08  1.17633E-07  1.94329E-07  1.92660E-07  3.10657E-07
 -120.8000  7.82107E-08  1.20926E-07  1.17601E-09  6.01764E-08  6.08838E-08  1.22236E-07  2.01517E-07  2.00447E-07  3.22443E-07
 -120.0000  8.15474E-08  1.25721E-07  1.22908E-09  6.25370E-08  6.32760E-08  1.27042E-07  2.08987E-07  2.08589E-07  3.34708E-07
 -119.2000  8.50452E-08  1.30722E-07  1.28481E-09  6.50019E-08  6.57738E-08  1.32061E-07  2.16752E-07  2.17106E-07  3.47473E-07
 -118.4000  8.87129E-08  1.35938E-07  1.34335E-09  6.75763E-08  6.83827E-08  1.37302E-07  2.24825E-07  2.26015E-07  3.60763E-07
 -117.6000  9.25600E-08  1.41380E-07  1.40486E-09  7.02657E-08  7.11081E-08  1.42779E-07  2.33220E-07  2.35339E-07  3.74600E-07
 -116.8000  9.65962E-08  1.47060E-07  1.46950E-09  7.30760E-08  7.39560E-08  1.48501E-07  2.41952E-07  2.45098E-07  3.89012E-07
 -116.0000  1.00832E-07  1.52989E-07  1.53745E-09  7.60132E-08  7.69325E-08  1.54483E-07  2.51035E-07  2.55315E-07  4.04024E-07
 -115.2000  1.05279E-07  1.59179E-07  1.60890E-09  7.90838E-08  8.00443E-08  1.60737E-07  2.60486E-07  2.66016E-07  4.19666E-07
 -114.4000  1.09949E-07  1.65644E-07  1.68405E-09  8.22945E-08  8.32979E-08  1.67276E-07  2.70322E-07  2.77225E-07  4.35966E-07
 -113.6000  1.14854E-07  1.72397E-07  1.76310E-09  8.56526E-08  8.67009E-08  1.74117E-07  2.80560E-07  2.88970E-07  4.52957E-07
 -112.8000  1.20008E-07  1.79454E-07  1.84630E-09  8.91658E-08  9.02610E-08  1.81273E-07  2.91219E-07  3.01281E-07  4.70672E-07
 -112.0000  1.25425E-07  1.86828E-07  1.93386E-09  9.28421E-08  9.39865E-08  1.88762E-07  3.02318E-07  3.14187E-07  4.89146E-07
 -111.2000  1.31120E-07  1.94538E-07  2.02607E-09  9.66902E-08  9.78859E-08  1.96602E-07  3.13878E-07  3.27722E-07  5.08416E-07
 -110.4000  1.37110E-07  2.02600E-07  2.12317E-09  1.00719E-07  1.01968E-07  2.04810E-07  3.25920E-07  3.41920E-07  5.28520E-07
 -109.6000  1.43411E-07  2.11032E-07  2.22547E-09  1.04938E-07  1.06243E-07  2.13406E-07  3.38468E-07  3.56818E-07  5.49501E-07
 -108.8000  1.50044E-07  2.19855E-07  2.33328E-09  1.09357E-07  1.10721E-07  2.22412E-07  3.51546E-07  3.72455E-07  5.71401E-07
 -108.0000  1.57026E-07  2.29088E-07  2.44692E-09  1.13988E-07  1.15414E-07  2.31848E-07  3.65178E-07  3.88874E-07  5.94266E-07
 -107.2000  1.64379E-07  2.38753E-07  2.56674E-09  1.18841E-07  1.20331E-07  2.41739E-07  3.79392E-07  4.06118E-07  6.18146E-07
 -106.4000  1.72125E-07  2.48874E-07  2.69312E-09  1.23929E-07  1.25486E-07  2.52109E-07  3.94216E-07  4.24234E-07  6.43090E-07
 -105.6000  1.80288E-07  2.59475E-07  2.82647E-09  1.29265E-07  1.30892E-07  2.62983E-07  4.09679E-07  4.43272E-07  6.69154E-07
 -104.8000  1.88895E-07  2.70581E-07  2.96720E-09  1.34861E-07  1.36563E-07  2.74392E-07  4.25813E-07  4.63286E-07  6.96395E-07
 -104.0000  1.97971E-07  2.82222E-07  3.11577E-09  1.40734E-07  1.42513E-07  2.86363E-07  4.42651E-07  4.84334E-07  7.24873E-07
 -103.2000  2.07548E-07  2.94426E-07  3.27268E-09  1.46898E-07  1.48757E-07  2.98928E-07  4.60228E-07  5.06476E-07  7.54653E-07
 -102.4000  2.17653E-07  3.07223E-07  3.43843E-09  1.53369E-07  1.55313E-07  3.12120E-07  4.78580E-07  5.29773E-07  7.85803E-07
 -101.6000  2.28324E-07  3.20648E-07  3.61359E-09  1.60165E-07  1.62197E-07  3.25975E-07  4.97747E-07  5.54299E-07  8.18395E-07
 -100.8000  2.39595E-07  3.34736E-07  3.79877E-09  1.67304E-07  1.69429E-07  3.40532E-07  5.17770E-07  5.80127E-07  8.52506E-07
 -100.0000  2.51505E-07  3.49525E-07  3.99458E-09  1.74807E-07  1.77029E-07  3.55830E-07  5.38692E-07  6.07335E-07  8.88217E-07
  -99.2000  2.64094E-07  3.65053E-07  4.20172E-09  1.82694E-07  1.85017E-07  3.71912E-07  5.60560E-07  6.36005E-07  9.25613E-07
  -98.4000  2.77406E-07  3.81364E-07  4.42091E-09  1.90986E-07  1.93415E-07  3.88822E-07  5.83423E-07  6.66229E-07  9.64787E-07
  -97.6000  2.91491E-07  3.98504E-07  4.65295E-09  1.99709E-07  2.02250E-07  4.06612E-07  6.07331E-07  6.98103E-07  1.00583E-06
  -96.8000  3.06399E-07  4.16519E-07  4.89867E-09  2.08888E-07  2.11545E-07  4.25332E-07  6.32340E-07  7.31731E-07  1.04886E-06
  -96.0000  3.22186E-07  4.35464E-07  5.15899E-09  2.18550E-07  2.21328E-07  4.45037E-07  6.58508E-07  7.67223E-07  1.09397E-06
  -95.2000  3.38907E-07  4.55391E-07  5.43484E-09  2.28722E-07  2.31628E-07  4.65785E-07  6.85895E-07  8.04692E-07  1.14129E-06
  -94.4000  3.56630E-07  4.76361E-07  5.72730E-09  2.39437E-07  2.42477E-07  4.87641E-07  7.14568E-07  8.44271E-07  1.19093E-06
  -93.6000  3.75422E-07  4.98435E-07  6.03747E-09  2.50727E-07  2.53907E-07  5.10672E-07  7.44595E-07  8.86094E-07  1.24303E-06
  -92.8000  3.95359E-07  5.21682E-07  6.36657E-09  2.62628E-07  2.65955E-07  5.34949E-07  7.76050E-07  9.30308E-07  1.29773E-06
  -92.0000  4.16517E-07  5.46172E-07  6.71586E-09  2.75177E-07  2.78657E-07  5.60550E-07  8.09009E-07  9.77067E-07  1.35518E-06
  -91.2000  4.38982E-07  5.71984E-07  7.08674E-09  2.88413E-07  2.92055E-07  5.87555E-07  8.43557E-07  1.02654E-06  1.41554E-06
  -90.4000  4.62849E-07  5.99199E-07  7.48072E-09  3.02382E-07  3.06191E-07  6.16054E-07  8.79780E-07  1.07890E-06  1.47898E-06
  -89.6000  4.88220E-07  6.27906E-07  7.89943E-09  3.17128E-07  3.21114E-07  6.46141E-07  9.17773E-07  1.13436E-06  1.54568E-06
  -88.8000  5.15202E-07  6.58199E-07  8.34459E-09  3.32701E-07  3.36873E-07  6.77919E-07  9.57633E-07  1.19312E-06  1.61583E-06
  -88.0000  5.43907E-07  6.90180E-07  8.81803E-09  3.49153E-07  3.53518E-07  7.11489E-07  9.99468E-07  1.25540E-06  1.68965E-06
  -87.2000  5.74469E-07  7.23958E-07  9.32184E-09  3.66542E-07  3.71110E-07  7.46974E-07  1.04339E-06  1.32144E-06  1.76735E-06
  -86.4000  6.07025E-07  7.59651E-07  9.85819E-09  3.84930E-07  3.89710E-07  7.84498E-07  1.08952E-06  1.39152E-06  1.84917E-06
  -85.6000  6.41726E-07  7.97384E-07  1.04295E-08  4.04381E-07  4.09384E-07  8.24194E-07  1.13798E-06  1.46592E-06  1.93536E-06
  -84.8000  6.78726E-07  8.37292E-07  1.10381E-08  4.24964E-07  4.30200E-07  8.66202E-07  1.18891E-06  1.54493E-06  2.02620E-06
  -84.0000  7.18208E-07  8.79522E-07  1.16870E-08  4.46757E-07  4.52237E-07  9.10680E-07  1.24246E-06  1.62889E-06  2.12198E-06
  -83.2000  7.60365E-07  9.24231E-07  1.23791E-08  4.69841E-07  4.75576E-07  9.57797E-07  1.29877E-06  1.71816E-06  2.22301E-06
  -82.4000  8.05406E-07  9.71588E-07  1.31176E-08  4.94305E-07  5.00308E-07  1.00773E-06  1.35803E-06  1.81314E-06  2.32962E-06
  -81.6000  8.53549E-07  1.02178E-06  1.39061E-08  5.20239E-07  5.26521E-07  1.06067E-06  1.42039E-06  1.91422E-06  2.44217E-06
  -80.8000  9.05050E-07  1.07499E-06  1.47483E-08  5.47747E-07  5.54323E-07  1.11682E-06  1.48606E-06  2.02187E-06  2.56105E-06
  -80.0000  9.60179E-07  1.13145E-06  1.56484E-08  5.76941E-07  5.83823E-07  1.17641E-06  1.55523E-06  2.13659E-06  2.68668E-06
  -79.2000  1.01924E-06  1.19138E-06  1.66108E-08  6.07939E-07  6.15142E-07  1.23969E-06  1.62813E-06  2.25893E-06  2.81951E-06
  -78.4000  1.08253E-06  1.25503E-06  1.76405E-08  6.40864E-07  6.48403E-07  1.30691E-06  1.70497E-06  2.38943E-06  2.96000E-06
  -77.6000  1.15042E-06  1.32267E-06  1.87427E-08  6.75859E-07  6.83748E-07  1.37835E-06  1.78602E-06  2.52877E-06  3.10869E-06
  -76.8000  1.22329E-06  1.39460E-06  1.99232E-08  7.13073E-07  7.21328E-07  1.45432E-06  1.87153E-06  2.67762E-06  3.26613E-06
