    Energy      s          Int(s)         px           py           pz           p          Int(p)       total      Int(total) 
 -200.0000  4.30690E-08  2.53241E-09  5.01819E-10  5.01855E-10  7.94113E-08  8.04150E-08  4.72831E-09  1.23484E-07  7.26072E-09
 -199.2000  4.40745E-08  5.12394E-09  5.14905E-10  5.14942E-10  8.11571E-08  8.21869E-08  9.56082E-09  1.26261E-07  1.46848E-08
 -198.4000  4.51062E-08  7.77614E-09  5.28366E-10  5.28404E-10  8.29454E-08  8.40021E-08  1.45001E-08  1.29108E-07  2.22762E-08
 -197.6000  4.61648E-08  1.04906E-08  5.42213E-10  5.42252E-10  8.47773E-08  8.58618E-08  1.95486E-08  1.32027E-07  3.00392E-08
 -196.8000  4.72511E-08  1.32689E-08  5.56457E-10  5.56498E-10  8.66541E-08  8.77671E-08  2.47092E-08  1.35018E-07  3.79781E-08
 -196.0000  4.83659E-08  1.61128E-08  5.71113E-10  5.71155E-10  8.85770E-08  8.97193E-08  2.99846E-08  1.38085E-07  4.60974E-08
 -195.2000  4.95100E-08  1.90239E-08  5.86193E-10  5.86236E-10  9.05473E-08  9.17198E-08  3.53777E-08  1.41230E-07  5.44016E-08
 -194.4000  5.06843E-08  2.20041E-08  6.01711E-10  6.01755E-10  9.25663E-08  9.37698E-08  4.08912E-08  1.44454E-07  6.28953E-08
 -193.6000  5.18898E-08  2.50551E-08  6.17680E-10  6.17726E-10  9.46353E-08  9.58707E-08  4.65283E-08  1.47760E-07  7.15835E-08
 -192.8000  5.31273E-08  2.81790E-08  6.34116E-10  6.34163E-10  9.67557E-08  9.80240E-08  5.22920E-08  1.51151E-07  8.04710E-08
 -192.0000  5.43978E-08  3.13775E-08  6.51033E-10  6.51081E-10  9.89290E-08  1.00231E-07  5.81855E-08  1.54629E-07  8.95630E-08
 -191.2000  5.57023E-08  3.46527E-08  6.68447E-10  6.68496E-10  1.01157E-07  1.02494E-07  6.42120E-08  1.58196E-07  9.88647E-08
 -190.4000  5.70418E-08  3.80067E-08  6.86373E-10  6.86425E-10  1.03440E-07  1.04813E-07  7.03749E-08  1.61855E-07  1.08382E-07
 -189.6000  5.84174E-08  4.14416E-08  7.04830E-10  7.04883E-10  1.05781E-07  1.07191E-07  7.66776E-08  1.65608E-07  1.18119E-07
 -188.8000  5.98301E-08  4.49595E-08  7.23834E-10  7.23889E-10  1.08181E-07  1.09629E-07  8.31237E-08  1.69459E-07  1.28083E-07
 -188.0000  6.12813E-08  4.85628E-08  7.43403E-10  7.43459E-10  1.10642E-07  1.12129E-07  8.97167E-08  1.73410E-07  1.38280E-07
 -187.2000  6.27719E-08  5.22537E-08  7.63556E-10  7.63614E-10  1.13165E-07  1.14693E-07  9.64605E-08  1.77464E-07  1.48714E-07
 -186.4000  6.43032E-08  5.60347E-08  7.84313E-10  7.84372E-10  1.15753E-07  1.17322E-07  1.03359E-07  1.81625E-07  1.59394E-07
 -185.6000  6.58765E-08  5.99082E-08  8.05692E-10  8.05753E-10  1.18407E-07  1.20018E-07  1.10416E-07  1.85895E-07  1.70324E-07
 -184.8000  6.74931E-08  6.38767E-08  8.27715E-10  8.27779E-10  1.21129E-07  1.22784E-07  1.17635E-07  1.90277E-07  1.81512E-07
 -184.0000  6.91543E-08  6.79429E-08  8.50404E-10  8.50469E-10  1.23920E-07  1.25621E-07  1.25022E-07  1.94775E-07  1.92965E-07
 -183.2000  7.08615E-08  7.21095E-08  8.73781E-10  8.73848E-10  1.26784E-07  1.28532E-07  1.32579E-07  1.99393E-07  2.04689E-07
 -182.4000  7.26162E-08  7.63792E-08  8.97869E-10  8.97938E-10  1.29722E-07  1.31518E-07  1.40312E-07  2.04134E-07  2.16692E-07
 -181.6000  7.44198E-08  8.07550E-08  9.22692E-10  9.22763E-10  1.32736E-07  1.34582E-07  1.48226E-07  2.09002E-07  2.28981E-07
 -180.8000  7.62740E-08  8.52398E-08  9.48275E-10  9.48348E-10  1.35829E-07  1.37726E-07  1.56324E-07  2.14000E-07  2.41564E-07
 -180.0000  7.81803E-08  8.98368E-08  9.74643E-10  9.74719E-10  1.39003E-07  1.40952E-07  1.64612E-07  2.19133E-07  2.54448E-07
 -179.2000  8.01403E-08  9.45489E-08  1.00182E-09  1.00190E-09  1.42260E-07  1.44264E-07  1.73094E-07  2.24404E-07  2.67643E-07
 -178.4000  8.21559E-08  9.93796E-08  1.02985E-09  1.02993E-09  1.45603E-07  1.47662E-07  1.81777E-07  2.29818E-07  2.81156E-07
 -177.6000  8.42287E-08  1.04332E-07  1.05874E-09  1.05882E-09  1.49034E-07  1.51151E-07  1.90664E-07  2.35380E-07  2.94996E-07
 -176.8000  8.63607E-08  1.09410E-07  1.08853E-09  1.08862E-09  1.52556E-07  1.54733E-07  1.99762E-07  2.41093E-07  3.09172E-07
 -176.0000  8.85538E-08  1.14617E-07  1.11925E-09  1.11934E-09  1.56171E-07  1.58410E-07  2.09077E-07  2.46964E-07  3.23694E-07
 -175.2000  9.08099E-08  1.19956E-07  1.15094E-09  1.15103E-09  1.59883E-07  1.62185E-07  2.18613E-07  2.52995E-07  3.38569E-07
 -174.4000  9.31311E-08  1.25432E-07  1.18362E-09  1.18371E-09  1.63695E-07  1.66062E-07  2.28377E-07  2.59193E-07  3.53810E-07
 -173.6000  9.55196E-08  1.31049E-07  1.21733E-09  1.21743E-09  1.67608E-07  1.70043E-07  2.38376E-07  2.65563E-07  3.69424E-07
 -172.8000  9.79775E-08  1.36810E-07  1.25211E-09  1.25221E-09  1.71628E-07  1.74132E-07  2.48614E-07  2.72110E-07  3.85424E-07
 -172.0000  1.00507E-07  1.42720E-07  1.28800E-09  1.28811E-09  1.75756E-07  1.78332E-07  2.59100E-07  2.78839E-07  4.01820E-07
 -171.2000  1.03111E-07  1.48782E-07  1.32504E-09  1.32514E-09  1.79996E-07  1.82646E-07  2.69839E-07  2.85757E-07  4.18622E-07
 -170.4000  1.05792E-07  1.55003E-07  1.36325E-09  1.36336E-09  1.84352E-07  1.87078E-07  2.80839E-07  2.92870E-07  4.35842E-07
 -169.6000  1.08551E-07  1.61386E-07  1.40270E-09  1.40281E-09  1.88826E-07  1.91632E-07  2.92107E-07  3.00183E-07  4.53493E-07
 -168.8000  1.11393E-07  1.67935E-07  1.44342E-09  1.44354E-09  1.93424E-07  1.96311E-07  3.03650E-07  3.07704E-07  4.71585E-07
 -168.0000  1.14319E-07  1.74657E-07  1.48546E-09  1.48558E-09  1.98148E-07  2.01120E-07  3.15476E-07  3.15439E-07  4.90133E-07
 -167.2000  1.17333E-07  1.81556E-07  1.52886E-09  1.52898E-09  2.03003E-07  2.06061E-07  3.27592E-07  3.23394E-07  5.09148E-07
 -166.4000  1.20437E-07  1.88638E-07  1.57368E-09  1.57381E-09  2.07993E-07  2.11141E-07  3.40007E-07  3.31578E-07  5.28644E-07
 -165.6000  1.23635E-07  1.95907E-07  1.61996E-09  1.62010E-09  2.13122E-07  2.16362E-07  3.52729E-07  3.39997E-07  5.48636E-07
 -164.8000  1.26930E-07  2.03371E-07  1.66777E-09  1.66791E-09  2.18394E-07  2.21729E-07  3.65766E-07  3.48659E-07  5.69137E-07
 -164.0000  1.30325E-07  2.11034E-07  1.71715E-09  1.71729E-09  2.23814E-07  2.27248E-07  3.79128E-07  3.57573E-07  5.90162E-07
 -163.2000  1.33823E-07  2.18902E-07  1.76817E-09  1.76832E-09  2.29386E-07  2.32923E-07  3.92824E-07  3.66746E-07  6.11726E-07
 -162.4000  1.37429E-07  2.26983E-07  1.82088E-09  1.82103E-09  2.35117E-07  2.38759E-07  4.06862E-07  3.76188E-07  6.33845E-07
 -161.6000  1.41146E-07  2.35282E-07  1.87535E-09  1.87551E-09  2.41010E-07  2.44760E-07  4.21254E-07  3.85906E-07  6.56536E-07
 -160.8000  1.44978E-07  2.43807E-07  1.93165E-09  1.93181E-09  2.47070E-07  2.50934E-07  4.36009E-07  3.95912E-07  6.79815E-07
 -160.0000  1.48929E-07  2.52564E-07  1.98983E-09  1.99000E-09  2.53305E-07  2.57284E-07  4.51137E-07  4.06213E-07  7.03700E-07
 -159.2000  1.53003E-07  2.61560E-07  2.04998E-09  2.05016E-09  2.59718E-07  2.63818E-07  4.66649E-07  4.16821E-07  7.28209E-07
 -158.4000  1.57205E-07  2.70804E-07  2.11217E-09  2.11235E-09  2.66316E-07  2.70540E-07  4.82556E-07  4.27746E-07  7.53360E-07
 -157.6000  1.61540E-07  2.80302E-07  2.17648E-09  2.17666E-09  2.73105E-07  2.77458E-07  4.98871E-07  4.38998E-07  7.79173E-07
 -156.8000  1.66011E-07  2.90063E-07  2.24298E-09  2.24317E-09  2.80091E-07  2.84578E-07  5.15603E-07  4.50589E-07  8.05667E-07
 -156.0000  1.70625E-07  3.00096E-07  2.31176E-09  2.31195E-09  2.87282E-07  2.91905E-07  5.32767E-07  4.62530E-07  8.32863E-07
 -155.2000  1.75385E-07  3.10408E-07  2.38290E-09  2.38311E-09  2.94683E-07  2.99449E-07  5.50374E-07  4.74834E-07  8.60783E-07
 -154.4000  1.80299E-07  3.21010E-07  2.45651E-09  2.45672E-09  3.02301E-07  3.07214E-07  5.68438E-07  4.87513E-07  8.89448E-07
 -153.6000  1.85370E-07  3.31909E-07  2.53267E-09  2.53289E-09  3.10145E-07  3.15211E-07  5.86972E-07  5.00581E-07  9.18881E-07
 -152.8000  1.90606E-07  3.43117E-07  2.61149E-09  2.61171E-09  3.18221E-07  3.23445E-07  6.05990E-07  5.14050E-07  9.49107E-07
 -152.0000  1.96012E-07  3.54642E-07  2.69306E-09  2.69329E-09  3.26538E-07  3.31924E-07  6.25507E-07  5.27936E-07  9.80149E-07
 -151.2000  2.01594E-07  3.66495E-07  2.77750E-09  2.77774E-09  3.35104E-07  3.40659E-07  6.45538E-07  5.42253E-07  1.01203E-06
 -150.4000  2.07360E-07  3.78688E-07  2.86492E-09  2.86517E-09  3.43926E-07  3.49656E-07  6.66097E-07  5.57016E-07  1.04478E-06
 -149.6000  2.13315E-07  3.91231E-07  2.95544E-09  2.95570E-09  3.53015E-07  3.58926E-07  6.87202E-07  5.72242E-07  1.07843E-06
 -148.8000  2.19469E-07  4.04135E-07  3.04918E-09  3.04945E-09  3.62379E-07  3.68478E-07  7.08868E-07  5.87947E-07  1.11300E-06
 -148.0000  2.25827E-07  4.17414E-07  3.14627E-09  3.14655E-09  3.72029E-07  3.78321E-07  7.31113E-07  6.04148E-07  1.14853E-06
 -147.2000  2.32397E-07  4.31078E-07  3.24684E-09  3.24713E-09  3.81972E-07  3.88466E-07  7.53954E-07  6.20864E-07  1.18503E-06
 -146.4000  2.39189E-07  4.45142E-07  3.35104E-09  3.35134E-09  3.92221E-07  3.98924E-07  7.77410E-07  6.38112E-07  1.22255E-06
 -145.6000  2.46210E-07  4.59619E-07  3.45902E-09  3.45932E-09  4.02786E-07  4.09704E-07  8.01500E-07  6.55914E-07  1.26112E-06
 -144.8000  2.53469E-07  4.74523E-07  3.57092E-09  3.57124E-09  4.13678E-07  4.20820E-07  8.26244E-07  6.74289E-07  1.30077E-06
 -144.0000  2.60976E-07  4.89868E-07  3.68691E-09  3.68724E-09  4.24909E-07  4.32283E-07  8.51662E-07  6.93259E-07  1.34153E-06
 -143.2000  2.68741E-07  5.05670E-07  3.80715E-09  3.80749E-09  4.36490E-07  4.44105E-07  8.77775E-07  7.12846E-07  1.38344E-06
 -142.4000  2.76774E-07  5.21944E-07  3.93183E-09  3.93218E-09  4.48435E-07  4.56299E-07  9.04605E-07  7.33072E-07  1.42655E-06
 -141.6000  2.85084E-07  5.38706E-07  4.06112E-09  4.06149E-09  4.60756E-07  4.68878E-07  9.32174E-07  7.53962E-07  1.47088E-06
 -140.8000  2.93684E-07  5.55975E-07  4.19522E-09  4.19560E-09  4.73467E-07  4.81858E-07  9.60507E-07  7.75542E-07  1.51648E-06
 -140.0000  3.02586E-07  5.73766E-07  4.33433E-09  4.33473E-09  4.86583E-07  4.95252E-07  9.89627E-07  7.97838E-07  1.56339E-06
 -139.2000  3.11801E-07  5.92100E-07  4.47867E-09  4.47908E-09  5.00118E-07  5.09075E-07  1.01956E-06  8.20876E-07  1.61166E-06
 -138.4000  3.21342E-07  6.10994E-07  4.62845E-09  4.62887E-09  5.14087E-07  5.23344E-07  1.05033E-06  8.44686E-07  1.66133E-06
 -137.6000  3.31222E-07  6.30470E-07  4.78390E-09  4.78434E-09  5.28507E-07  5.38075E-07  1.08197E-06  8.69298E-07  1.71244E-06
 -136.8000  3.41456E-07  6.50547E-07  4.94527E-09  4.94572E-09  5.43394E-07  5.53285E-07  1.11450E-06  8.94741E-07  1.76505E-06
 -136.0000  3.52058E-07  6.71248E-07  5.11281E-09  5.11328E-09  5.58766E-07  5.68992E-07  1.14796E-06  9.21050E-07  1.81921E-06
 -135.2000  3.63043E-07  6.92594E-07  5.28679E-09  5.28728E-09  5.74641E-07  5.85215E-07  1.18237E-06  9.48259E-07  1.87496E-06
 -134.4000  3.74428E-07  7.14610E-07  5.46749E-09  5.46800E-09  5.91039E-07  6.01974E-07  1.21776E-06  9.76403E-07  1.93238E-06
 -133.6000  3.86230E-07  7.37320E-07  5.65520E-09  5.65573E-09  6.07978E-07  6.19289E-07  1.25418E-06  1.00552E-06  1.99150E-06
 -132.8000  3.98465E-07  7.60749E-07  5.85023E-09  5.85078E-09  6.25480E-07  6.37181E-07  1.29164E-06  1.03565E-06  2.05239E-06
 -132.0000  4.11153E-07  7.84925E-07  6.05290E-09  6.05347E-09  6.43565E-07  6.55671E-07  1.33020E-06  1.06682E-06  2.11512E-06
 -131.2000  4.24312E-07  8.09874E-07  6.26356E-09  6.26415E-09  6.62257E-07  6.74785E-07  1.36987E-06  1.09910E-06  2.17975E-06
 -130.4000  4.37964E-07  8.35626E-07  6.48255E-09  6.48316E-09  6.81580E-07  6.94545E-07  1.41071E-06  1.13251E-06  2.24634E-06
 -129.6000  4.52130E-07  8.62210E-07  6.71025E-09  6.71089E-09  7.01557E-07  7.14978E-07  1.45275E-06  1.16711E-06  2.31496E-06
 -128.8000  4.66832E-07  8.89660E-07  6.94706E-09  6.94773E-09  7.22215E-07  7.36109E-07  1.49603E-06  1.20294E-06  2.38569E-06
 -128.0000  4.82094E-07  9.18006E-07  7.19338E-09  7.19407E-09  7.43578E-07  7.57966E-07  1.54060E-06  1.24006E-06  2.45861E-06
 -127.2000  4.97939E-07  9.47285E-07  7.44965E-09  7.45036E-09  7.65678E-07  7.80578E-07  1.58650E-06  1.27852E-06  2.53378E-06
 -126.4000  5.14396E-07  9.77531E-07  7.71632E-09  7.71706E-09  7.88542E-07  8.03975E-07  1.63377E-06  1.31837E-06  2.61130E-06
 -125.6000  5.31491E-07  1.00878E-06  7.99388E-09  7.99465E-09  8.12201E-07  8.28189E-07  1.68247E-06  1.35968E-06  2.69125E-06
 -124.8000  5.49253E-07  1.04108E-06  8.28283E-09  8.28363E-09  8.36687E-07  8.53254E-07  1.73264E-06  1.40251E-06  2.77372E-06
 -124.0000  5.67711E-07  1.07446E-06  8.58369E-09  8.58453E-09  8.62034E-07  8.79202E-07  1.78433E-06  1.44691E-06  2.85879E-06
 -123.2000  5.86897E-07  1.10897E-06  8.89702E-09  8.89789E-09  8.88275E-07  9.06070E-07  1.83761E-06  1.49297E-06  2.94658E-06
 -122.4000  6.06847E-07  1.14465E-06  9.22342E-09  9.22432E-09  9.15450E-07  9.33897E-07  1.89252E-06  1.54074E-06  3.03717E-06
 -121.6000  6.27594E-07  1.18155E-06  9.56350E-09  9.56444E-09  9.43595E-07  9.62723E-07  1.94913E-06  1.59032E-06  3.13068E-06
 -120.8000  6.49176E-07  1.21972E-06  9.91792E-09  9.91890E-09  9.72752E-07  9.92588E-07  2.00749E-06  1.64176E-06  3.22721E-06
 -120.0000  6.71633E-07  1.25921E-06  1.02874E-08  1.02884E-08  1.00296E-06  1.02354E-06  2.06768E-06  1.69517E-06  3.32689E-06
 -119.2000  6.95004E-07  1.30008E-06  1.06725E-08  1.06736E-08  1.03427E-06  1.05561E-06  2.12974E-06  1.75062E-06  3.42982E-06
 -118.4000  7.19334E-07  1.34237E-06  1.10742E-08  1.10753E-08  1.06672E-06  1.08887E-06  2.19377E-06  1.80820E-06  3.53614E-06
 -117.6000  7.44669E-07  1.38616E-06  1.14932E-08  1.14943E-08  1.10036E-06  1.12335E-06  2.25982E-06  1.86802E-06  3.64598E-06
 -116.8000  7.71058E-07  1.43150E-06  1.19303E-08  1.19315E-08  1.13525E-06  1.15911E-06  2.32798E-06  1.93017E-06  3.75947E-06
 -116.0000  7.98552E-07  1.47845E-06  1.23865E-08  1.23878E-08  1.17143E-06  1.19620E-06  2.39831E-06  1.99476E-06  3.87676E-06
 -115.2000  8.27203E-07  1.52709E-06  1.28627E-08  1.28640E-08  1.20897E-06  1.23469E-06  2.47091E-06  2.06190E-06  3.99800E-06
 -114.4000  8.57070E-07  1.57748E-06  1.33599E-08  1.33612E-08  1.24791E-06  1.27463E-06  2.54586E-06  2.13170E-06  4.12334E-06
 -113.6000  8.88214E-07  1.62971E-06  1.38791E-08  1.38805E-08  1.28833E-06  1.31609E-06  2.62324E-06  2.20431E-06  4.25295E-06
 -112.8000  9.20698E-07  1.68385E-06  1.44215E-08  1.44230E-08  1.33029E-06  1.35914E-06  2.70316E-06  2.27983E-06  4.38700E-06
 -112.0000  9.54591E-07  1.73998E-06  1.49883E-08  1.49898E-08  1.37386E-06  1.40384E-06  2.78570E-06  2.35843E-06  4.52568E-06
 -111.2000  9.89960E-07  1.79818E-06  1.55806E-08  1.55822E-08  1.41910E-06  1.45026E-06  2.87097E-06  2.44022E-06  4.66916E-06
 -110.4000  1.02688E-06  1.85856E-06  1.61999E-08  1.62015E-08  1.46610E-06  1.49850E-06  2.95908E-06  2.52538E-06  4.81765E-06
 -109.6000  1.06544E-06  1.92121E-06  1.68474E-08  1.68491E-08  1.51493E-06  1.54863E-06  3.05014E-06  2.61407E-06  4.97135E-06
 -108.8000  1.10572E-06  1.98623E-06  1.75247E-08  1.75265E-08  1.56568E-06  1.60073E-06  3.14426E-06  2.70645E-06  5.13049E-06
 -108.0000  1.14781E-06  2.05372E-06  1.82334E-08  1.82353E-08  1.61843E-06  1.65490E-06  3.24157E-06  2.80271E-06  5.29529E-06
 -107.2000  1.19180E-06  2.12379E-06  1.89750E-08  1.89770E-08  1.67328E-06  1.71123E-06  3.34219E-06  2.90303E-06  5.46598E-06
 -106.4000  1.23780E-06  2.19657E-06  1.97514E-08  1.97535E-08  1.73032E-06  1.76983E-06  3.44625E-06  3.00763E-06  5.64283E-06
 -105.6000  1.28591E-06  2.27218E-06  2.05644E-08  2.05666E-08  1.78966E-06  1.83079E-06  3.55390E-06  3.11671E-06  5.82609E-06
 -104.8000  1.33626E-06  2.35075E-06  2.14161E-08  2.14183E-08  1.85141E-06  1.89424E-06  3.66528E-06  3.23050E-06  6.01603E-06
 -104.0000  1.38895E-06  2.43242E-06  2.23084E-08  2.23107E-08  1.91568E-06  1.96030E-06  3.78054E-06  3.34924E-06  6.21297E-06
 -103.2000  1.44411E-06  2.51734E-06  2.32435E-08  2.32460E-08  1.98258E-06  2.02907E-06  3.89985E-06  3.47318E-06  6.41719E-06
 -102.4000  1.50189E-06  2.60565E-06  2.42239E-08  2.42265E-08  2.05225E-06  2.10070E-06  4.02337E-06  3.60259E-06  6.62901E-06
 -101.6000  1.56244E-06  2.69752E-06  2.52522E-08  2.52549E-08  2.12482E-06  2.17533E-06  4.15128E-06  3.73777E-06  6.84879E-06
 -100.8000  1.62590E-06  2.79312E-06  2.63308E-08  2.63336E-08  2.20044E-06  2.25310E-06  4.28376E-06  3.87900E-06  7.07687E-06
 -100.0000  1.69245E-06  2.89263E-06  2.74628E-08  2.74657E-08  2.27925E-06  2.33418E-06  4.42100E-06  4.02662E-06  7.31363E-06
  -99.2000  1.76224E-06  2.99625E-06  2.86509E-08  2.86540E-08  2.36140E-06  2.41871E-06  4.56322E-06  4.18094E-06  7.55947E-06
  -98.4000  1.83548E-06  3.10417E-06  2.98986E-08  2.99018E-08  2.44707E-06  2.50687E-06  4.71062E-06  4.34235E-06  7.81479E-06
  -97.6000  1.91237E-06  3.21662E-06  3.12092E-08  3.12125E-08  2.53644E-06  2.59887E-06  4.86343E-06  4.51124E-06  8.08005E-06
  -96.8000  1.99313E-06  3.33381E-06  3.25863E-08  3.25899E-08  2.62970E-06  2.69487E-06  5.02189E-06  4.68801E-06  8.35570E-06
  -96.0000  2.07798E-06  3.45599E-06  3.40339E-08  3.40376E-08  2.72702E-06  2.79509E-06  5.18624E-06  4.87307E-06  8.64223E-06
  -95.2000  2.16715E-06  3.58342E-06  3.55559E-08  3.55598E-08  2.82864E-06  2.89975E-06  5.35674E-06  5.06690E-06  8.94016E-06
  -94.4000  2.26092E-06  3.71636E-06  3.71569E-08  3.71610E-08  2.93476E-06  3.00908E-06  5.53367E-06  5.27000E-06  9.25003E-06
  -93.6000  2.35958E-06  3.85510E-06  3.88416E-08  3.88459E-08  3.04564E-06  3.12333E-06  5.71732E-06  5.48290E-06  9.57242E-06
  -92.8000  2.46341E-06  3.99995E-06  4.06151E-08  4.06196E-08  3.16152E-06  3.24275E-06  5.90799E-06  5.70616E-06  9.90793E-06
  -92.0000  2.57272E-06  4.15122E-06  4.24824E-08  4.24871E-08  3.28264E-06  3.36761E-06  6.10600E-06  5.94033E-06  1.02572E-05
  -91.2000  2.68788E-06  4.30926E-06  4.44496E-08  4.44545E-08  3.40931E-06  3.49821E-06  6.31169E-06  6.18610E-06  1.06210E-05
  -90.4000  2.80926E-06  4.47445E-06  4.65227E-08  4.65278E-08  3.54183E-06  3.63488E-06  6.52542E-06  6.44414E-06  1.09999E-05
  -89.6000  2.93726E-06  4.64715E-06  4.87084E-08  4.87138E-08  3.68051E-06  3.77793E-06  6.74756E-06  6.71519E-06  1.13947E-05
  -88.8000  3.07227E-06  4.82780E-06  5.10133E-08  5.10190E-08  3.82567E-06  3.92771E-06  6.97850E-06  6.99997E-06  1.18063E-05
  -88.0000  3.21477E-06  5.01682E-06  5.34453E-08  5.34513E-08  3.97769E-06  4.08459E-06  7.21867E-06  7.29936E-06  1.22355E-05
  -87.2000  3.36527E-06  5.21470E-06  5.60125E-08  5.60188E-08  4.13696E-06  4.24899E-06  7.46851E-06  7.61426E-06  1.26832E-05
  -86.4000  3.52429E-06  5.42192E-06  5.87235E-08  5.87301E-08  4.30388E-06  4.42133E-06  7.72848E-06  7.94562E-06  1.31504E-05
  -85.6000  3.69239E-06  5.63903E-06  6.15874E-08  6.15943E-08  4.47886E-06  4.60204E-06  7.99907E-06  8.29444E-06  1.36381E-05
  -84.8000  3.87018E-06  5.86659E-06  6.46140E-08  6.46213E-08  4.66238E-06  4.79161E-06  8.28081E-06  8.66179E-06  1.41474E-05
  -84.0000  4.05835E-06  6.10522E-06  6.78145E-08  6.78221E-08  4.85494E-06  4.99057E-06  8.57425E-06  9.04893E-06  1.46795E-05
  -83.2000  4.25764E-06  6.35557E-06  7.12002E-08  7.12082E-08  5.05706E-06  5.19947E-06  8.87998E-06  9.45711E-06  1.52355E-05
  -82.4000  4.46878E-06  6.61833E-06  7.47834E-08  7.47919E-08  5.26931E-06  5.41888E-06  9.19860E-06  9.88767E-06  1.58169E-05
  -81.6000  4.69259E-06  6.89424E-06  7.85771E-08  7.85860E-08  5.49225E-06  5.64941E-06  9.53078E-06  1.03420E-05  1.64250E-05
  -80.8000  4.93005E-06  7.18413E-06  8.25960E-08  8.26054E-08  5.72656E-06  5.89176E-06  9.87721E-06  1.08218E-05  1.70613E-05
  -80.0000  5.18213E-06  7.48883E-06  8.68558E-08  8.68657E-08  5.97293E-06  6.14666E-06  1.02386E-05  1.13288E-05  1.77275E-05
  -79.2000  5.44989E-06  7.80928E-06  9.13728E-08  9.13833E-08  6.23209E-06  6.41484E-06  1.06158E-05  1.18647E-05  1.84251E-05
  -78.4000  5.73443E-06  8.14646E-06  9.61646E-08  9.61756E-08  6.50477E-06  6.69711E-06  1.10096E-05  1.24315E-05  1.91561E-05
  -77.6000  6.03710E-06  8.50143E-06  1.01251E-07  1.01263E-07  6.79188E-06  6.99440E-06  1.14209E-05  1.30315E-05  1.99223E-05
  -76.8000  6.35929E-06  8.87535E-06  1.06654E-07  1.06666E-07  7.09433E-06  7.30765E-06  1.18505E-05  1.36669E-05  2.07259E-05
