    Energy      s          Int(s)         px           py           pz           p          Int(p)       total      Int(total) 
 -200.0000  9.14629E-09  5.37792E-10  1.78639E-08  7.62227E-10  5.43470E-10  1.91696E-08  1.12715E-09  2.83159E-08  1.66494E-09
 -199.2000  9.39362E-09  1.09013E-09  1.83133E-08  7.81876E-10  5.57052E-10  1.96522E-08  2.28268E-09  2.90458E-08  3.37281E-09
 -198.4000  9.64820E-09  1.65743E-09  1.87749E-08  8.02074E-10  5.71007E-10  2.01480E-08  3.46736E-09  2.97962E-08  5.12479E-09
 -197.6000  9.91029E-09  2.24014E-09  1.92492E-08  8.22839E-10  5.85348E-10  2.06574E-08  4.68199E-09  3.05677E-08  6.92214E-09
 -196.8000  1.01801E-08  2.83872E-09  1.97365E-08  8.44188E-10  6.00086E-10  2.11808E-08  5.92740E-09  3.13609E-08  8.76613E-09
 -196.0000  1.04579E-08  3.45364E-09  2.02372E-08  8.66140E-10  6.15234E-10  2.17186E-08  7.20443E-09  3.21765E-08  1.06581E-08
 -195.2000  1.07440E-08  4.08537E-09  2.07517E-08  8.88713E-10  6.30804E-10  2.22712E-08  8.51395E-09  3.30152E-08  1.25993E-08
 -194.4000  1.10386E-08  4.73443E-09  2.12804E-08  9.11927E-10  6.46810E-10  2.28392E-08  9.85687E-09  3.38777E-08  1.45913E-08
 -193.6000  1.13420E-08  5.40133E-09  2.18238E-08  9.35801E-10  6.63265E-10  2.34229E-08  1.12341E-08  3.47649E-08  1.66354E-08
 -192.8000  1.16545E-08  6.08660E-09  2.23823E-08  9.60357E-10  6.80183E-10  2.40228E-08  1.26466E-08  3.56773E-08  1.87332E-08
 -192.0000  1.19764E-08  6.79079E-09  2.29564E-08  9.85617E-10  6.97578E-10  2.46396E-08  1.40954E-08  3.66159E-08  2.08862E-08
 -191.2000  1.23080E-08  7.51449E-09  2.35465E-08  1.01160E-09  7.15467E-10  2.52736E-08  1.55815E-08  3.75816E-08  2.30960E-08
 -190.4000  1.26496E-08  8.25827E-09  2.41532E-08  1.03833E-09  7.33865E-10  2.59254E-08  1.71059E-08  3.85750E-08  2.53641E-08
 -189.6000  1.30016E-08  9.02276E-09  2.47769E-08  1.06584E-09  7.52787E-10  2.65956E-08  1.86696E-08  3.95972E-08  2.76924E-08
 -188.8000  1.33644E-08  9.80857E-09  2.54183E-08  1.09414E-09  7.72251E-10  2.72847E-08  2.02740E-08  4.06491E-08  3.00825E-08
 -188.0000  1.37382E-08  1.06164E-08  2.60778E-08  1.12327E-09  7.92274E-10  2.79934E-08  2.19199E-08  4.17315E-08  3.25363E-08
 -187.2000  1.41235E-08  1.14468E-08  2.67560E-08  1.15324E-09  8.12874E-10  2.87222E-08  2.36088E-08  4.28456E-08  3.50556E-08
 -186.4000  1.45206E-08  1.23006E-08  2.74536E-08  1.18409E-09  8.34069E-10  2.94718E-08  2.53417E-08  4.39924E-08  3.76423E-08
 -185.6000  1.49300E-08  1.31785E-08  2.81711E-08  1.21584E-09  8.55880E-10  3.02428E-08  2.71199E-08  4.51728E-08  4.02984E-08
 -184.8000  1.53520E-08  1.40811E-08  2.89091E-08  1.24853E-09  8.78326E-10  3.10359E-08  2.89448E-08  4.63880E-08  4.30259E-08
 -184.0000  1.57872E-08  1.50094E-08  2.96683E-08  1.28219E-09  9.01428E-10  3.18519E-08  3.08177E-08  4.76391E-08  4.58271E-08
 -183.2000  1.62359E-08  1.59641E-08  3.04494E-08  1.31684E-09  9.25207E-10  3.26914E-08  3.27399E-08  4.89274E-08  4.87039E-08
 -182.4000  1.66987E-08  1.69459E-08  3.12531E-08  1.35252E-09  9.49687E-10  3.35553E-08  3.47129E-08  5.02540E-08  5.16588E-08
 -181.6000  1.71760E-08  1.79559E-08  3.20801E-08  1.38926E-09  9.74889E-10  3.44442E-08  3.67382E-08  5.16202E-08  5.46940E-08
 -180.8000  1.76683E-08  1.89947E-08  3.29311E-08  1.42710E-09  1.00084E-09  3.53591E-08  3.88172E-08  5.30274E-08  5.78120E-08
 -180.0000  1.81761E-08  2.00635E-08  3.38070E-08  1.46608E-09  1.02756E-09  3.63007E-08  4.09517E-08  5.44768E-08  6.10152E-08
 -179.2000  1.87001E-08  2.11630E-08  3.47086E-08  1.50623E-09  1.05508E-09  3.72699E-08  4.31431E-08  5.59700E-08  6.43061E-08
 -178.4000  1.92407E-08  2.22944E-08  3.56366E-08  1.54759E-09  1.08342E-09  3.82676E-08  4.53932E-08  5.75084E-08  6.76876E-08
 -177.6000  1.97986E-08  2.34585E-08  3.65920E-08  1.59020E-09  1.11262E-09  3.92948E-08  4.77037E-08  5.90934E-08  7.11622E-08
 -176.8000  2.03744E-08  2.46565E-08  3.75756E-08  1.63411E-09  1.14270E-09  4.03524E-08  5.00764E-08  6.07268E-08  7.47329E-08
 -176.0000  2.09687E-08  2.58894E-08  3.85884E-08  1.67936E-09  1.17368E-09  4.14415E-08  5.25131E-08  6.24101E-08  7.84025E-08
 -175.2000  2.15821E-08  2.71584E-08  3.96314E-08  1.72599E-09  1.20562E-09  4.25630E-08  5.50158E-08  6.41451E-08  8.21742E-08
 -174.4000  2.22155E-08  2.84647E-08  4.07055E-08  1.77405E-09  1.23852E-09  4.37181E-08  5.75863E-08  6.59335E-08  8.60510E-08
 -173.6000  2.28694E-08  2.98094E-08  4.18118E-08  1.82359E-09  1.27244E-09  4.49078E-08  6.02269E-08  6.77772E-08  9.00362E-08
 -172.8000  2.35446E-08  3.11938E-08  4.29513E-08  1.87467E-09  1.30739E-09  4.61334E-08  6.29395E-08  6.96780E-08  9.41332E-08
 -172.0000  2.42420E-08  3.26192E-08  4.41253E-08  1.92733E-09  1.34343E-09  4.73960E-08  6.57263E-08  7.16380E-08  9.83455E-08
 -171.2000  2.49623E-08  3.40869E-08  4.53347E-08  1.98163E-09  1.38059E-09  4.86969E-08  6.85896E-08  7.36592E-08  1.02677E-07
 -170.4000  2.57063E-08  3.55984E-08  4.65809E-08  2.03762E-09  1.41890E-09  5.00374E-08  7.15318E-08  7.57438E-08  1.07130E-07
 -169.6000  2.64750E-08  3.71551E-08  4.78651E-08  2.09537E-09  1.45841E-09  5.14189E-08  7.45551E-08  7.78939E-08  1.11710E-07
 -168.8000  2.72693E-08  3.87585E-08  4.91886E-08  2.15494E-09  1.49916E-09  5.28427E-08  7.76622E-08  8.01120E-08  1.16421E-07
 -168.0000  2.80901E-08  4.04102E-08  5.05527E-08  2.21639E-09  1.54119E-09  5.43103E-08  8.08556E-08  8.24003E-08  1.21266E-07
 -167.2000  2.89384E-08  4.21117E-08  5.19588E-08  2.27978E-09  1.58455E-09  5.58231E-08  8.41380E-08  8.47615E-08  1.26250E-07
 -166.4000  2.98152E-08  4.38648E-08  5.34084E-08  2.34519E-09  1.62929E-09  5.73828E-08  8.75120E-08  8.71980E-08  1.31377E-07
 -165.6000  3.07216E-08  4.56712E-08  5.49029E-08  2.41269E-09  1.67545E-09  5.89911E-08  9.09806E-08  8.97126E-08  1.36652E-07
 -164.8000  3.16587E-08  4.75327E-08  5.64440E-08  2.48235E-09  1.72309E-09  6.06495E-08  9.45467E-08  9.23082E-08  1.42079E-07
 -164.0000  3.26278E-08  4.94512E-08  5.80333E-08  2.55425E-09  1.77226E-09  6.23598E-08  9.82134E-08  9.49876E-08  1.47665E-07
 -163.2000  3.36300E-08  5.14286E-08  5.96724E-08  2.62847E-09  1.82302E-09  6.41239E-08  1.01984E-07  9.77539E-08  1.53412E-07
 -162.4000  3.46665E-08  5.34670E-08  6.13632E-08  2.70510E-09  1.87543E-09  6.59437E-08  1.05861E-07  1.00610E-07  1.59328E-07
 -161.6000  3.57388E-08  5.55684E-08  6.31073E-08  2.78422E-09  1.92954E-09  6.78211E-08  1.09849E-07  1.03560E-07  1.65417E-07
 -160.8000  3.68482E-08  5.77350E-08  6.49068E-08  2.86592E-09  1.98542E-09  6.97581E-08  1.13951E-07  1.06606E-07  1.71686E-07
 -160.0000  3.79961E-08  5.99691E-08  6.67635E-08  2.95030E-09  2.04313E-09  7.17570E-08  1.18170E-07  1.09753E-07  1.78139E-07
 -159.2000  3.91841E-08  6.22731E-08  6.86797E-08  3.03745E-09  2.10275E-09  7.38199E-08  1.22511E-07  1.13004E-07  1.84784E-07
 -158.4000  4.04137E-08  6.46494E-08  7.06573E-08  3.12749E-09  2.16434E-09  7.59491E-08  1.26976E-07  1.16363E-07  1.91626E-07
 -157.6000  4.16866E-08  6.71005E-08  7.26986E-08  3.22051E-09  2.22798E-09  7.81471E-08  1.31571E-07  1.19834E-07  1.98672E-07
 -156.8000  4.30044E-08  6.96291E-08  7.48059E-08  3.31663E-09  2.29374E-09  8.04162E-08  1.36300E-07  1.23421E-07  2.05929E-07
 -156.0000  4.43690E-08  7.22380E-08  7.69816E-08  3.41596E-09  2.36171E-09  8.27592E-08  1.41166E-07  1.27128E-07  2.13404E-07
 -155.2000  4.57823E-08  7.49299E-08  7.92282E-08  3.51862E-09  2.43197E-09  8.51788E-08  1.46174E-07  1.30961E-07  2.21104E-07
 -154.4000  4.72461E-08  7.77080E-08  8.15483E-08  3.62474E-09  2.50461E-09  8.76776E-08  1.51330E-07  1.34924E-07  2.29038E-07
 -153.6000  4.87626E-08  8.05752E-08  8.39446E-08  3.73446E-09  2.57971E-09  9.02588E-08  1.56637E-07  1.39021E-07  2.37212E-07
 -152.8000  5.03339E-08  8.35347E-08  8.64200E-08  3.84790E-09  2.65738E-09  9.29253E-08  1.62101E-07  1.43259E-07  2.45635E-07
 -152.0000  5.19622E-08  8.65901E-08  8.89773E-08  3.96521E-09  2.73772E-09  9.56803E-08  1.67726E-07  1.47642E-07  2.54317E-07
 -151.2000  5.36497E-08  8.97446E-08  9.16197E-08  4.08654E-09  2.82082E-09  9.85270E-08  1.73520E-07  1.52177E-07  2.63264E-07
 -150.4000  5.53991E-08  9.30020E-08  9.43502E-08  4.21204E-09  2.90681E-09  1.01469E-07  1.79486E-07  1.56868E-07  2.72488E-07
 -149.6000  5.72128E-08  9.63661E-08  9.71724E-08  4.34188E-09  2.99578E-09  1.04510E-07  1.85631E-07  1.61723E-07  2.81997E-07
 -148.8000  5.90936E-08  9.98407E-08  1.00090E-07  4.47623E-09  3.08786E-09  1.07654E-07  1.91961E-07  1.66747E-07  2.91802E-07
 -148.0000  6.10442E-08  1.03430E-07  1.03105E-07  4.61526E-09  3.18318E-09  1.10904E-07  1.98482E-07  1.71948E-07  3.01912E-07
 -147.2000  6.30675E-08  1.07138E-07  1.06224E-07  4.75915E-09  3.28186E-09  1.14265E-07  2.05201E-07  1.77332E-07  3.12339E-07
 -146.4000  6.51666E-08  1.10970E-07  1.09448E-07  4.90810E-09  3.38403E-09  1.17740E-07  2.12124E-07  1.82907E-07  3.23094E-07
 -145.6000  6.73447E-08  1.14930E-07  1.12783E-07  5.06230E-09  3.48985E-09  1.21335E-07  2.19258E-07  1.88680E-07  3.34188E-07
 -144.8000  6.96053E-08  1.19023E-07  1.16232E-07  5.22198E-09  3.59945E-09  1.25054E-07  2.26611E-07  1.94659E-07  3.45634E-07
 -144.0000  7.19518E-08  1.23253E-07  1.19801E-07  5.38734E-09  3.71299E-09  1.28901E-07  2.34190E-07  2.00853E-07  3.57444E-07
 -143.2000  7.43880E-08  1.27627E-07  1.23494E-07  5.55862E-09  3.83064E-09  1.32883E-07  2.42004E-07  2.07271E-07  3.69631E-07
 -142.4000  7.69177E-08  1.32150E-07  1.27315E-07  5.73606E-09  3.95256E-09  1.37004E-07  2.50059E-07  2.13921E-07  3.82209E-07
 -141.6000  7.95449E-08  1.36827E-07  1.31270E-07  5.91990E-09  4.07893E-09  1.41269E-07  2.58366E-07  2.20814E-07  3.95193E-07
 -140.8000  8.22740E-08  1.41665E-07  1.35364E-07  6.11040E-09  4.20994E-09  1.45684E-07  2.66932E-07  2.27958E-07  4.08597E-07
 -140.0000  8.51095E-08  1.46669E-07  1.39603E-07  6.30785E-09  4.34578E-09  1.50256E-07  2.75767E-07  2.35366E-07  4.22436E-07
 -139.2000  8.80561E-08  1.51847E-07  1.43992E-07  6.51253E-09  4.48665E-09  1.54991E-07  2.84880E-07  2.43047E-07  4.36727E-07
 -138.4000  9.11186E-08  1.57204E-07  1.48537E-07  6.72474E-09  4.63277E-09  1.59895E-07  2.94282E-07  2.51013E-07  4.51486E-07
 -137.6000  9.43025E-08  1.62749E-07  1.53245E-07  6.94480E-09  4.78436E-09  1.64975E-07  3.03982E-07  2.59277E-07  4.66731E-07
 -136.8000  9.76128E-08  1.68489E-07  1.58123E-07  7.17301E-09  4.94166E-09  1.70238E-07  3.13992E-07  2.67850E-07  4.82480E-07
 -136.0000  1.01056E-07  1.74431E-07  1.63177E-07  7.40975E-09  5.10491E-09  1.75692E-07  3.24322E-07  2.76747E-07  4.98753E-07
 -135.2000  1.04637E-07  1.80583E-07  1.68414E-07  7.65536E-09  5.27436E-09  1.81344E-07  3.34985E-07  2.85981E-07  5.15568E-07
 -134.4000  1.08363E-07  1.86955E-07  1.73843E-07  7.91022E-09  5.45030E-09  1.87203E-07  3.45992E-07  2.95566E-07  5.32947E-07
 -133.6000  1.12240E-07  1.93554E-07  1.79471E-07  8.17474E-09  5.63300E-09  1.93278E-07  3.57357E-07  3.05519E-07  5.50911E-07
 -132.8000  1.16276E-07  2.00391E-07  1.85306E-07  8.44932E-09  5.82277E-09  1.99578E-07  3.69092E-07  3.15854E-07  5.69483E-07
 -132.0000  1.20477E-07  2.07475E-07  1.91357E-07  8.73440E-09  6.01990E-09  2.06111E-07  3.81211E-07  3.26588E-07  5.88686E-07
 -131.2000  1.24853E-07  2.14816E-07  1.97633E-07  9.03043E-09  6.22474E-09  2.12888E-07  3.93729E-07  3.37740E-07  6.08545E-07
 -130.4000  1.29409E-07  2.22426E-07  2.04144E-07  9.33790E-09  6.43763E-09  2.19919E-07  4.06660E-07  3.49328E-07  6.29085E-07
 -129.6000  1.34157E-07  2.30314E-07  2.10899E-07  9.65731E-09  6.65893E-09  2.27215E-07  4.20020E-07  3.61372E-07  6.50334E-07
 -128.8000  1.39103E-07  2.38493E-07  2.17910E-07  9.98920E-09  6.88902E-09  2.34788E-07  4.33825E-07  3.73891E-07  6.72318E-07
 -128.0000  1.44259E-07  2.46975E-07  2.25187E-07  1.03341E-08  7.12830E-09  2.42649E-07  4.48092E-07  3.86908E-07  6.95068E-07
 -127.2000  1.49634E-07  2.55774E-07  2.32741E-07  1.06926E-08  7.37720E-09  2.50811E-07  4.62840E-07  4.00444E-07  7.18613E-07
 -126.4000  1.55238E-07  2.64901E-07  2.40585E-07  1.10653E-08  7.63616E-09  2.59286E-07  4.78086E-07  4.14525E-07  7.42987E-07
 -125.6000  1.61084E-07  2.74373E-07  2.48732E-07  1.14529E-08  7.90564E-09  2.68090E-07  4.93849E-07  4.29174E-07  7.68222E-07
 -124.8000  1.67182E-07  2.84203E-07  2.57194E-07  1.18560E-08  8.18615E-09  2.77236E-07  5.10150E-07  4.44418E-07  7.94353E-07
 -124.0000  1.73546E-07  2.94407E-07  2.65986E-07  1.22753E-08  8.47819E-09  2.86739E-07  5.27010E-07  4.60285E-07  8.21417E-07
 -123.2000  1.80188E-07  3.05002E-07  2.75122E-07  1.27116E-08  8.78230E-09  2.96616E-07  5.44451E-07  4.76804E-07  8.49453E-07
 -122.4000  1.87122E-07  3.16005E-07  2.84618E-07  1.31657E-08  9.09908E-09  3.06883E-07  5.62495E-07  4.94005E-07  8.78500E-07
 -121.6000  1.94364E-07  3.27433E-07  2.94490E-07  1.36385E-08  9.42911E-09  3.17558E-07  5.81167E-07  5.11922E-07  9.08600E-07
 -120.8000  2.01929E-07  3.39306E-07  3.04755E-07  1.41306E-08  9.77305E-09  3.28659E-07  6.00492E-07  5.30588E-07  9.39798E-07
 -120.0000  2.09833E-07  3.51644E-07  3.15431E-07  1.46432E-08  1.01316E-08  3.40206E-07  6.20496E-07  5.50039E-07  9.72140E-07
 -119.2000  2.18094E-07  3.64468E-07  3.26537E-07  1.51772E-08  1.05054E-08  3.52219E-07  6.41206E-07  5.70313E-07  1.00567E-06
 -118.4000  2.26730E-07  3.77799E-07  3.38092E-07  1.57334E-08  1.08952E-08  3.64720E-07  6.62651E-07  5.91450E-07  1.04045E-06
 -117.6000  2.35761E-07  3.91662E-07  3.50117E-07  1.63132E-08  1.13019E-08  3.77732E-07  6.84861E-07  6.13493E-07  1.07652E-06
 -116.8000  2.45208E-07  4.06080E-07  3.62635E-07  1.69175E-08  1.17262E-08  3.91279E-07  7.07868E-07  6.36487E-07  1.11395E-06
 -116.0000  2.55093E-07  4.21079E-07  3.75668E-07  1.75477E-08  1.21691E-08  4.05385E-07  7.31704E-07  6.60478E-07  1.15278E-06
 -115.2000  2.65438E-07  4.36687E-07  3.89241E-07  1.82048E-08  1.26314E-08  4.20078E-07  7.56404E-07  6.85516E-07  1.19309E-06
 -114.4000  2.76269E-07  4.52931E-07  4.03379E-07  1.88903E-08  1.31143E-08  4.35384E-07  7.82005E-07  7.11653E-07  1.23494E-06
 -113.6000  2.87612E-07  4.69842E-07  4.18110E-07  1.96056E-08  1.36186E-08  4.51334E-07  8.08542E-07  7.38945E-07  1.27838E-06
 -112.8000  2.99494E-07  4.87452E-07  4.33461E-07  2.03521E-08  1.41456E-08  4.67959E-07  8.36058E-07  7.67453E-07  1.32351E-06
 -112.0000  3.11947E-07  5.05794E-07  4.49464E-07  2.11314E-08  1.46964E-08  4.85292E-07  8.64593E-07  7.97238E-07  1.37039E-06
 -111.2000  3.25000E-07  5.24904E-07  4.66149E-07  2.19453E-08  1.52723E-08  5.03367E-07  8.94190E-07  8.28367E-07  1.41909E-06
 -110.4000  3.38686E-07  5.44818E-07  4.83550E-07  2.27953E-08  1.58744E-08  5.22220E-07  9.24896E-07  8.60906E-07  1.46971E-06
 -109.6000  3.53042E-07  5.65577E-07  5.01703E-07  2.36834E-08  1.65044E-08  5.41890E-07  9.56759E-07  8.94932E-07  1.52234E-06
 -108.8000  3.68106E-07  5.87221E-07  5.20644E-07  2.46116E-08  1.71636E-08  5.62419E-07  9.89828E-07  9.30525E-07  1.57705E-06
 -108.0000  3.83917E-07  6.09795E-07  5.40414E-07  2.55819E-08  1.78535E-08  5.83850E-07  1.02416E-06  9.67767E-07  1.63395E-06
 -107.2000  4.00520E-07  6.33345E-07  5.61055E-07  2.65966E-08  1.85760E-08  6.06227E-07  1.05980E-06  1.00675E-06  1.69315E-06
 -106.4000  4.17957E-07  6.57920E-07  5.82608E-07  2.76578E-08  1.93326E-08  6.29598E-07  1.09682E-06  1.04755E-06  1.75474E-06
 -105.6000  4.36279E-07  6.83573E-07  6.05122E-07  2.87682E-08  2.01253E-08  6.54015E-07  1.13528E-06  1.09029E-06  1.81885E-06
 -104.8000  4.55539E-07  7.10358E-07  6.28646E-07  2.99303E-08  2.09562E-08  6.79533E-07  1.17523E-06  1.13507E-06  1.88559E-06
 -104.0000  4.75791E-07  7.38334E-07  6.53234E-07  3.11470E-08  2.18273E-08  7.06208E-07  1.21676E-06  1.18200E-06  1.95509E-06
 -103.2000  4.97094E-07  7.67563E-07  6.78939E-07  3.24211E-08  2.27409E-08  7.34101E-07  1.25992E-06  1.23120E-06  2.02749E-06
 -102.4000  5.19509E-07  7.98109E-07  7.05818E-07  3.37558E-08  2.36992E-08  7.63273E-07  1.30480E-06  1.28278E-06  2.10291E-06
 -101.6000  5.43107E-07  8.30043E-07  7.33937E-07  3.51544E-08  2.47050E-08  7.93797E-07  1.35148E-06  1.33690E-06  2.18152E-06
 -100.8000  5.67959E-07  8.63439E-07  7.63361E-07  3.66205E-08  2.57610E-08  8.25743E-07  1.40003E-06  1.39370E-06  2.26347E-06
 -100.0000  5.94144E-07  8.98374E-07  7.94160E-07  3.81579E-08  2.68701E-08  8.59188E-07  1.45055E-06  1.45333E-06  2.34892E-06
  -99.2000  6.21740E-07  9.34932E-07  8.26406E-07  3.97704E-08  2.80352E-08  8.94211E-07  1.50313E-06  1.51595E-06  2.43806E-06
  -98.4000  6.50838E-07  9.73200E-07  8.60178E-07  4.14624E-08  2.92598E-08  9.30900E-07  1.55786E-06  1.58174E-06  2.53106E-06
  -97.6000  6.81534E-07  1.01327E-06  8.95562E-07  4.32385E-08  3.05473E-08  9.69348E-07  1.61486E-06  1.65088E-06  2.62813E-06
  -96.8000  7.13930E-07  1.05525E-06  9.32648E-07  4.51034E-08  3.19015E-08  1.00965E-06  1.67423E-06  1.72358E-06  2.72948E-06
  -96.0000  7.48135E-07  1.09924E-06  9.71528E-07  4.70623E-08  3.33265E-08  1.05192E-06  1.73608E-06  1.80005E-06  2.83532E-06
  -95.2000  7.84261E-07  1.14535E-06  1.01230E-06  4.91206E-08  3.48264E-08  1.09625E-06  1.80054E-06  1.88051E-06  2.94589E-06
  -94.4000  8.22439E-07  1.19371E-06  1.05507E-06  5.12842E-08  3.64058E-08  1.14276E-06  1.86773E-06  1.96520E-06  3.06144E-06
  -93.6000  8.62806E-07  1.24445E-06  1.09997E-06  5.35594E-08  3.80699E-08  1.19160E-06  1.93779E-06  2.05440E-06  3.18224E-06
  -92.8000  9.05507E-07  1.29769E-06  1.14710E-06  5.59530E-08  3.98237E-08  1.24288E-06  2.01087E-06  2.14838E-06  3.30856E-06
  -92.0000  9.50694E-07  1.35359E-06  1.19659E-06  5.84718E-08  4.16728E-08  1.29674E-06  2.08712E-06  2.24743E-06  3.44071E-06
  -91.2000  9.98537E-07  1.41230E-06  1.24859E-06  6.11236E-08  4.36233E-08  1.35334E-06  2.16670E-06  2.35188E-06  3.57900E-06
  -90.4000  1.04922E-06  1.47399E-06  1.30325E-06  6.39165E-08  4.56817E-08  1.41285E-06  2.24977E-06  2.46207E-06  3.72376E-06
  -89.6000  1.10295E-06  1.53885E-06  1.36071E-06  6.68595E-08  4.78550E-08  1.47543E-06  2.33652E-06  2.57838E-06  3.87537E-06
  -88.8000  1.15993E-06  1.60705E-06  1.42116E-06  6.99617E-08  5.01507E-08  1.54127E-06  2.42715E-06  2.70120E-06  4.03420E-06
  -88.0000  1.22037E-06  1.67881E-06  1.48475E-06  7.32329E-08  5.25764E-08  1.61056E-06  2.52185E-06  2.83093E-06  4.20065E-06
  -87.2000  1.28454E-06  1.75434E-06  1.55169E-06  7.66842E-08  5.51411E-08  1.68352E-06  2.62084E-06  2.96806E-06  4.37517E-06
  -86.4000  1.35272E-06  1.83387E-06  1.62219E-06  8.03272E-08  5.78541E-08  1.76037E-06  2.72434E-06  3.11309E-06  4.55822E-06
  -85.6000  1.42518E-06  1.91767E-06  1.69647E-06  8.41741E-08  6.07254E-08  1.84137E-06  2.83261E-06  3.26655E-06  4.75029E-06
  -84.8000  1.50223E-06  2.00600E-06  1.77475E-06  8.82380E-08  6.37652E-08  1.92675E-06  2.94591E-06  3.42898E-06  4.95191E-06
  -84.0000  1.58422E-06  2.09915E-06  1.85729E-06  9.25335E-08  6.69857E-08  2.01681E-06  3.06449E-06  3.60103E-06  5.16364E-06
  -83.2000  1.67153E-06  2.19744E-06  1.94436E-06  9.70759E-08  7.03993E-08  2.11184E-06  3.18867E-06  3.78337E-06  5.38610E-06
  -82.4000  1.76456E-06  2.30119E-06  2.03627E-06  1.01882E-07  7.40196E-08  2.21217E-06  3.31874E-06  3.97673E-06  5.61993E-06
  -81.6000  1.86373E-06  2.41078E-06  2.13329E-06  1.06969E-07  7.78606E-08  2.31812E-06  3.45504E-06  4.18185E-06  5.86582E-06
  -80.8000  1.96953E-06  2.52658E-06  2.23578E-06  1.12357E-07  8.19386E-08  2.43008E-06  3.59793E-06  4.39961E-06  6.12451E-06
  -80.0000  2.08249E-06  2.64903E-06  2.34411E-06  1.18066E-07  8.62707E-08  2.54845E-06  3.74777E-06  4.63094E-06  6.39680E-06
  -79.2000  2.20317E-06  2.77858E-06  2.45866E-06  1.24118E-07  9.08755E-08  2.67366E-06  3.90498E-06  4.87682E-06  6.68356E-06
  -78.4000  2.33216E-06  2.91570E-06  2.57983E-06  1.30539E-07  9.57723E-08  2.80614E-06  4.06998E-06  5.13830E-06  6.98568E-06
  -77.6000  2.47017E-06  3.06095E-06  2.70809E-06  1.37353E-07  1.00983E-07  2.94642E-06  4.24323E-06  5.41659E-06  7.30417E-06
  -76.8000  2.61793E-06  3.21488E-06  2.84391E-06  1.44590E-07  1.06532E-07  3.09504E-06  4.42521E-06  5.71296E-06  7.64009E-06
