    Energy      s          Int(s)         px           py           pz           p          Int(p)       total      Int(total) 
 -200.0000  3.25791E-10  1.91562E-11  2.59211E-12  3.08524E-10  2.39371E-10  5.50486E-10  3.23680E-11  8.76278E-10  5.15242E-11
 -199.2000  3.37085E-10  3.89764E-11  2.69408E-12  3.18840E-10  2.47351E-10  5.68885E-10  6.58178E-11  9.05971E-10  1.04794E-10
 -198.4000  3.48796E-10  5.94853E-11  2.80026E-12  3.29521E-10  2.55615E-10  5.87937E-10  1.00388E-10  9.36733E-10  1.59873E-10
 -197.6000  3.60940E-10  8.07081E-11  2.91085E-12  3.40582E-10  2.64172E-10  6.07665E-10  1.36118E-10  9.68605E-10  2.16826E-10
 -196.8000  3.73534E-10  1.02672E-10  3.02602E-12  3.52037E-10  2.73033E-10  6.28096E-10  1.73049E-10  1.00163E-09  2.75721E-10
 -196.0000  3.86596E-10  1.25403E-10  3.14600E-12  3.63899E-10  2.82211E-10  6.49257E-10  2.11225E-10  1.03585E-09  3.36628E-10
 -195.2000  4.00145E-10  1.48931E-10  3.27097E-12  3.76186E-10  2.91718E-10  6.71175E-10  2.50689E-10  1.07132E-09  3.99620E-10
 -194.4000  4.14200E-10  1.73286E-10  3.40118E-12  3.88914E-10  3.01565E-10  6.93880E-10  2.91489E-10  1.10808E-09  4.64774E-10
 -193.6000  4.28782E-10  1.98497E-10  3.53684E-12  4.02099E-10  3.11766E-10  7.17402E-10  3.33671E-10  1.14618E-09  5.32169E-10
 -192.8000  4.43912E-10  2.24599E-10  3.67821E-12  4.15758E-10  3.22335E-10  7.41772E-10  3.77286E-10  1.18568E-09  6.01885E-10
 -192.0000  4.59613E-10  2.51624E-10  3.82553E-12  4.29911E-10  3.33286E-10  7.67023E-10  4.22387E-10  1.22664E-09  6.74010E-10
 -191.2000  4.75906E-10  2.79607E-10  3.97907E-12  4.44577E-10  3.44634E-10  7.93190E-10  4.69025E-10  1.26910E-09  7.48632E-10
 -190.4000  4.92817E-10  3.08584E-10  4.13911E-12  4.59774E-10  3.56394E-10  8.20307E-10  5.17258E-10  1.31312E-09  8.25842E-10
 -189.6000  5.10370E-10  3.38593E-10  4.30594E-12  4.75524E-10  3.68582E-10  8.48412E-10  5.67144E-10  1.35878E-09  9.05737E-10
 -188.8000  5.28592E-10  3.69673E-10  4.47987E-12  4.91849E-10  3.81216E-10  8.77545E-10  6.18743E-10  1.40614E-09  9.88416E-10
 -188.0000  5.47510E-10  4.01866E-10  4.66122E-12  5.08771E-10  3.94312E-10  9.07744E-10  6.72117E-10  1.45525E-09  1.07398E-09
 -187.2000  5.67153E-10  4.35214E-10  4.85032E-12  5.26313E-10  4.07889E-10  9.39053E-10  7.27332E-10  1.50621E-09  1.16255E-09
 -186.4000  5.87551E-10  4.69762E-10  5.04753E-12  5.44500E-10  4.21966E-10  9.71514E-10  7.84456E-10  1.55907E-09  1.25422E-09
 -185.6000  6.08736E-10  5.05555E-10  5.25321E-12  5.63357E-10  4.36563E-10  1.00517E-09  8.43560E-10  1.61391E-09  1.34911E-09
 -184.8000  6.30739E-10  5.42642E-10  5.46775E-12  5.82911E-10  4.51700E-10  1.04008E-09  9.04715E-10  1.67082E-09  1.44736E-09
 -184.0000  6.53595E-10  5.81072E-10  5.69156E-12  6.03190E-10  4.67399E-10  1.07628E-09  9.67999E-10  1.72987E-09  1.54907E-09
 -183.2000  6.77340E-10  6.20899E-10  5.92506E-12  6.24222E-10  4.83682E-10  1.11383E-09  1.03349E-09  1.79117E-09  1.65439E-09
 -182.4000  7.02011E-10  6.62176E-10  6.16870E-12  6.46037E-10  5.00572E-10  1.15278E-09  1.10127E-09  1.85479E-09  1.76345E-09
 -181.6000  7.27647E-10  7.04961E-10  6.42295E-12  6.68668E-10  5.18096E-10  1.19319E-09  1.17143E-09  1.92083E-09  1.87639E-09
 -180.8000  7.54289E-10  7.49313E-10  6.68829E-12  6.92146E-10  5.36277E-10  1.23511E-09  1.24405E-09  1.98940E-09  1.99337E-09
 -180.0000  7.81979E-10  7.95292E-10  6.96525E-12  7.16505E-10  5.55142E-10  1.27861E-09  1.31924E-09  2.06059E-09  2.11453E-09
 -179.2000  8.10763E-10  8.42964E-10  7.25436E-12  7.41783E-10  5.74719E-10  1.32376E-09  1.39707E-09  2.13452E-09  2.24003E-09
 -178.4000  8.40686E-10  8.92396E-10  7.55620E-12  7.68014E-10  5.95038E-10  1.37061E-09  1.47766E-09  2.21129E-09  2.37006E-09
 -177.6000  8.71798E-10  9.43656E-10  7.87135E-12  7.95240E-10  6.16128E-10  1.41924E-09  1.56111E-09  2.29104E-09  2.50477E-09
 -176.8000  9.04150E-10  9.96819E-10  8.20045E-12  8.23499E-10  6.38021E-10  1.46972E-09  1.64753E-09  2.37387E-09  2.64435E-09
 -176.0000  9.37795E-10  1.05196E-09  8.54416E-12  8.52835E-10  6.60751E-10  1.52213E-09  1.73703E-09  2.45993E-09  2.78899E-09
 -175.2000  9.72790E-10  1.10916E-09  8.90315E-12  8.83292E-10  6.84351E-10  1.57655E-09  1.82973E-09  2.54934E-09  2.93889E-09
 -174.4000  1.00919E-09  1.16850E-09  9.27817E-12  9.14916E-10  7.08858E-10  1.63305E-09  1.92575E-09  2.64224E-09  3.09425E-09
 -173.6000  1.04706E-09  1.23007E-09  9.66996E-12  9.47755E-10  7.34309E-10  1.69173E-09  2.02522E-09  2.73880E-09  3.25529E-09
 -172.8000  1.08647E-09  1.29395E-09  1.00793E-11  9.81859E-10  7.60744E-10  1.75268E-09  2.12828E-09  2.83915E-09  3.42223E-09
 -172.0000  1.12748E-09  1.36024E-09  1.05071E-11  1.01728E-09  7.88204E-10  1.81599E-09  2.23506E-09  2.94347E-09  3.59530E-09
 -171.2000  1.17015E-09  1.42905E-09  1.09542E-11  1.05408E-09  8.16733E-10  1.88176E-09  2.34570E-09  3.05192E-09  3.77475E-09
 -170.4000  1.21458E-09  1.50046E-09  1.14216E-11  1.09230E-09  8.46374E-10  1.95010E-09  2.46036E-09  3.16468E-09  3.96083E-09
 -169.6000  1.26083E-09  1.57460E-09  1.19102E-11  1.13202E-09  8.77175E-10  2.02111E-09  2.57920E-09  3.28193E-09  4.15380E-09
 -168.8000  1.30898E-09  1.65156E-09  1.24210E-11  1.17329E-09  9.09185E-10  2.09490E-09  2.70238E-09  3.40388E-09  4.35395E-09
 -168.0000  1.35912E-09  1.73148E-09  1.29551E-11  1.21618E-09  9.42456E-10  2.17159E-09  2.83007E-09  3.53071E-09  4.56155E-09
 -167.2000  1.41134E-09  1.81446E-09  1.35137E-11  1.26076E-09  9.77040E-10  2.25132E-09  2.96244E-09  3.66265E-09  4.77691E-09
 -166.4000  1.46573E-09  1.90065E-09  1.40980E-11  1.30710E-09  1.01300E-09  2.33420E-09  3.09969E-09  3.79993E-09  5.00034E-09
 -165.6000  1.52239E-09  1.99016E-09  1.47092E-11  1.35528E-09  1.05038E-09  2.42037E-09  3.24201E-09  3.94276E-09  5.23217E-09
 -164.8000  1.58143E-09  2.08315E-09  1.53486E-11  1.40537E-09  1.08926E-09  2.50997E-09  3.38959E-09  4.09140E-09  5.47274E-09
 -164.0000  1.64295E-09  2.17975E-09  1.60177E-11  1.45745E-09  1.12969E-09  2.60316E-09  3.54265E-09  4.24611E-09  5.72241E-09
 -163.2000  1.70707E-09  2.28013E-09  1.67180E-11  1.51162E-09  1.17175E-09  2.70009E-09  3.70142E-09  4.40715E-09  5.98154E-09
 -162.4000  1.77390E-09  2.38443E-09  1.74509E-11  1.56797E-09  1.21550E-09  2.80091E-09  3.86611E-09  4.57481E-09  6.25054E-09
 -161.6000  1.84357E-09  2.49283E-09  1.82180E-11  1.62658E-09  1.26102E-09  2.90581E-09  4.03697E-09  4.74938E-09  6.52979E-09
 -160.8000  1.91621E-09  2.60550E-09  1.90213E-11  1.68755E-09  1.30838E-09  3.01495E-09  4.21424E-09  4.93116E-09  6.81974E-09
 -160.0000  1.99196E-09  2.72263E-09  1.98623E-11  1.75100E-09  1.35767E-09  3.12853E-09  4.39820E-09  5.12050E-09  7.12082E-09
 -159.2000  2.07097E-09  2.84440E-09  2.07431E-11  1.81703E-09  1.40898E-09  3.24675E-09  4.58910E-09  5.31772E-09  7.43350E-09
 -158.4000  2.15339E-09  2.97101E-09  2.16657E-11  1.88575E-09  1.46238E-09  3.36980E-09  4.78724E-09  5.52319E-09  7.75826E-09
 -157.6000  2.23938E-09  3.10269E-09  2.26321E-11  1.95728E-09  1.51799E-09  3.49790E-09  4.99291E-09  5.73728E-09  8.09560E-09
 -156.8000  2.32910E-09  3.23964E-09  2.36447E-11  2.03175E-09  1.57588E-09  3.63128E-09  5.20643E-09  5.96038E-09  8.44606E-09
 -156.0000  2.42274E-09  3.38209E-09  2.47058E-11  2.10929E-09  1.63617E-09  3.77017E-09  5.42811E-09  6.19291E-09  8.81020E-09
 -155.2000  2.52047E-09  3.53029E-09  2.58178E-11  2.19004E-09  1.69897E-09  3.91483E-09  5.65830E-09  6.43530E-09  9.18859E-09
 -154.4000  2.62251E-09  3.68449E-09  2.69834E-11  2.27413E-09  1.76439E-09  4.06551E-09  5.89735E-09  6.68802E-09  9.58184E-09
 -153.6000  2.72905E-09  3.84496E-09  2.82054E-11  2.36173E-09  1.83255E-09  4.22248E-09  6.14562E-09  6.95153E-09  9.99058E-09
 -152.8000  2.84031E-09  4.01196E-09  2.94867E-11  2.45299E-09  1.90356E-09  4.38604E-09  6.40352E-09  7.22635E-09  1.04155E-08
 -152.0000  2.95653E-09  4.18580E-09  3.08304E-11  2.54807E-09  1.97757E-09  4.55648E-09  6.67143E-09  7.51300E-09  1.08572E-08
 -151.2000  3.07793E-09  4.36678E-09  3.22398E-11  2.64716E-09  2.05471E-09  4.73411E-09  6.94979E-09  7.81204E-09  1.13166E-08
 -150.4000  3.20477E-09  4.55522E-09  3.37183E-11  2.75043E-09  2.13513E-09  4.91927E-09  7.23904E-09  8.12405E-09  1.17943E-08
 -149.6000  3.33733E-09  4.75145E-09  3.52695E-11  2.85807E-09  2.21897E-09  5.11232E-09  7.53964E-09  8.44965E-09  1.22911E-08
 -148.8000  3.47589E-09  4.95583E-09  3.68974E-11  2.97030E-09  2.30641E-09  5.31360E-09  7.85208E-09  8.78949E-09  1.28079E-08
 -148.0000  3.62074E-09  5.16873E-09  3.86059E-11  3.08732E-09  2.39759E-09  5.52352E-09  8.17685E-09  9.14425E-09  1.33456E-08
 -147.2000  3.77219E-09  5.39053E-09  4.03994E-11  3.20936E-09  2.49271E-09  5.74246E-09  8.51450E-09  9.51465E-09  1.39050E-08
 -146.4000  3.93057E-09  5.62164E-09  4.22824E-11  3.33664E-09  2.59194E-09  5.97086E-09  8.86558E-09  9.90143E-09  1.44872E-08
 -145.6000  4.09623E-09  5.86249E-09  4.42598E-11  3.46942E-09  2.69548E-09  6.20916E-09  9.23067E-09  1.03054E-08  1.50932E-08
 -144.8000  4.26955E-09  6.11354E-09  4.63366E-11  3.60796E-09  2.80353E-09  6.45783E-09  9.61039E-09  1.07274E-08  1.57239E-08
 -144.0000  4.45091E-09  6.37525E-09  4.85183E-11  3.75253E-09  2.91632E-09  6.71736E-09  1.00054E-08  1.11683E-08  1.63806E-08
 -143.2000  4.64071E-09  6.64812E-09  5.08104E-11  3.90341E-09  3.03406E-09  6.98828E-09  1.04163E-08  1.16290E-08  1.70644E-08
 -142.4000  4.83939E-09  6.93267E-09  5.32192E-11  4.06091E-09  3.15700E-09  7.27113E-09  1.08438E-08  1.21105E-08  1.77765E-08
 -141.6000  5.04741E-09  7.22945E-09  5.57508E-11  4.22534E-09  3.28538E-09  7.56647E-09  1.12887E-08  1.26139E-08  1.85181E-08
 -140.8000  5.26524E-09  7.53904E-09  5.84122E-11  4.39703E-09  3.41947E-09  7.87492E-09  1.17517E-08  1.31402E-08  1.92908E-08
 -140.0000  5.49340E-09  7.86205E-09  6.12105E-11  4.57635E-09  3.55955E-09  8.19711E-09  1.22337E-08  1.36905E-08  2.00958E-08
 -139.2000  5.73243E-09  8.19911E-09  6.41532E-11  4.76366E-09  3.70592E-09  8.53372E-09  1.27355E-08  1.42662E-08  2.09346E-08
 -138.4000  5.98290E-09  8.55089E-09  6.72486E-11  4.95934E-09  3.85887E-09  8.88546E-09  1.32579E-08  1.48684E-08  2.18088E-08
 -137.6000  6.24540E-09  8.91812E-09  7.05050E-11  5.16382E-09  4.01874E-09  9.25306E-09  1.38020E-08  1.54985E-08  2.27201E-08
 -136.8000  6.52058E-09  9.30152E-09  7.39315E-11  5.37751E-09  4.18586E-09  9.63730E-09  1.43687E-08  1.61579E-08  2.36702E-08
 -136.0000  6.80910E-09  9.70189E-09  7.75377E-11  5.60088E-09  4.36061E-09  1.00390E-08  1.49590E-08  1.68481E-08  2.46609E-08
 -135.2000  7.11168E-09  1.01200E-08  8.13339E-11  5.83440E-09  4.54335E-09  1.04591E-08  1.55739E-08  1.75708E-08  2.56940E-08
 -134.4000  7.42909E-09  1.05569E-08  8.53309E-11  6.07859E-09  4.73450E-09  1.08984E-08  1.62148E-08  1.83275E-08  2.67716E-08
 -133.6000  7.76211E-09  1.10133E-08  8.95401E-11  6.33399E-09  4.93448E-09  1.13580E-08  1.68826E-08  1.91201E-08  2.78959E-08
 -132.8000  8.11161E-09  1.14902E-08  9.39737E-11  6.60114E-09  5.14373E-09  1.18388E-08  1.75787E-08  1.99505E-08  2.90689E-08
 -132.0000  8.47845E-09  1.19888E-08  9.86446E-11  6.88064E-09  5.36273E-09  1.23420E-08  1.83044E-08  2.08205E-08  3.02932E-08
 -131.2000  8.86361E-09  1.25099E-08  1.03567E-10  7.17313E-09  5.59197E-09  1.28687E-08  1.90611E-08  2.17323E-08  3.15710E-08
 -130.4000  9.26810E-09  1.30549E-08  1.08754E-10  7.47927E-09  5.83200E-09  1.34200E-08  1.98502E-08  2.26881E-08  3.29050E-08
 -129.6000  9.69300E-09  1.36248E-08  1.14224E-10  7.79975E-09  6.08335E-09  1.39973E-08  2.06732E-08  2.36903E-08  3.42980E-08
 -128.8000  1.01394E-08  1.42210E-08  1.19990E-10  8.13532E-09  6.34663E-09  1.46019E-08  2.15318E-08  2.47414E-08  3.57528E-08
 -128.0000  1.06086E-08  1.48448E-08  1.26073E-10  8.48676E-09  6.62244E-09  1.52353E-08  2.24276E-08  2.58439E-08  3.72724E-08
 -127.2000  1.11018E-08  1.54975E-08  1.32489E-10  8.85487E-09  6.91145E-09  1.58988E-08  2.33624E-08  2.70006E-08  3.88600E-08
 -126.4000  1.16203E-08  1.61808E-08  1.39259E-10  9.24055E-09  7.21436E-09  1.65942E-08  2.43381E-08  2.82145E-08  4.05189E-08
 -125.6000  1.21657E-08  1.68961E-08  1.46405E-10  9.64472E-09  7.53190E-09  1.73230E-08  2.53567E-08  2.94888E-08  4.22528E-08
 -124.8000  1.27395E-08  1.76452E-08  1.53948E-10  1.00684E-08  7.86486E-09  1.80872E-08  2.64202E-08  3.08267E-08  4.40654E-08
 -124.0000  1.33433E-08  1.84298E-08  1.61913E-10  1.05125E-08  8.21405E-09  1.88885E-08  2.75308E-08  3.22317E-08  4.59606E-08
 -123.2000  1.39788E-08  1.92517E-08  1.70325E-10  1.09782E-08  8.58034E-09  1.97289E-08  2.86909E-08  3.37076E-08  4.79426E-08
 -122.4000  1.46478E-08  2.01130E-08  1.79211E-10  1.14666E-08  8.96467E-09  2.06105E-08  2.99027E-08  3.52583E-08  5.00157E-08
 -121.6000  1.53525E-08  2.10157E-08  1.88602E-10  1.19790E-08  9.36801E-09  2.15357E-08  3.11690E-08  3.68881E-08  5.21847E-08
 -120.8000  1.60947E-08  2.19621E-08  1.98527E-10  1.25167E-08  9.79141E-09  2.25067E-08  3.24924E-08  3.86014E-08  5.44544E-08
 -120.0000  1.68769E-08  2.29544E-08  2.09020E-10  1.30810E-08  1.02360E-08  2.35260E-08  3.38757E-08  4.04030E-08  5.68301E-08
 -119.2000  1.77014E-08  2.39952E-08  2.20116E-10  1.36735E-08  1.07028E-08  2.45964E-08  3.53219E-08  4.22978E-08  5.93172E-08
 -118.4000  1.85705E-08  2.50871E-08  2.31853E-10  1.42955E-08  1.11932E-08  2.57206E-08  3.68343E-08  4.42911E-08  6.19214E-08
 -117.6000  1.94873E-08  2.62330E-08  2.44271E-10  1.49488E-08  1.17085E-08  2.69016E-08  3.84161E-08  4.63889E-08  6.46490E-08
 -116.8000  2.04544E-08  2.74357E-08  2.57413E-10  1.56352E-08  1.22501E-08  2.81427E-08  4.00708E-08  4.85971E-08  6.75065E-08
 -116.0000  2.14750E-08  2.86984E-08  2.71325E-10  1.63564E-08  1.28194E-08  2.94471E-08  4.18023E-08  5.09221E-08  7.05007E-08
 -115.2000  2.25523E-08  3.00244E-08  2.86057E-10  1.71144E-08  1.34181E-08  3.08185E-08  4.36144E-08  5.33709E-08  7.36388E-08
 -114.4000  2.36898E-08  3.14174E-08  3.01660E-10  1.79113E-08  1.40477E-08  3.22606E-08  4.55113E-08  5.59505E-08  7.69286E-08
 -113.6000  2.48914E-08  3.28810E-08  3.18191E-10  1.87493E-08  1.47101E-08  3.37776E-08  4.74974E-08  5.86690E-08  8.03783E-08
 -112.8000  2.61611E-08  3.44192E-08  3.35710E-10  1.96308E-08  1.54072E-08  3.53736E-08  4.95773E-08  6.15347E-08  8.39965E-08
 -112.0000  2.75030E-08  3.60363E-08  3.54283E-10  2.05582E-08  1.61409E-08  3.70534E-08  5.17560E-08  6.45564E-08  8.77923E-08
 -111.2000  2.89219E-08  3.77369E-08  3.73977E-10  2.15342E-08  1.69135E-08  3.88217E-08  5.40387E-08  6.77436E-08  9.17756E-08
 -110.4000  3.04225E-08  3.95257E-08  3.94866E-10  2.25616E-08  1.77271E-08  4.06836E-08  5.64308E-08  7.11061E-08  9.59565E-08
 -109.6000  3.20103E-08  4.14079E-08  4.17030E-10  2.36435E-08  1.85842E-08  4.26447E-08  5.89383E-08  7.46550E-08  1.00346E-07
 -108.8000  3.36908E-08  4.33889E-08  4.40554E-10  2.47830E-08  1.94874E-08  4.47110E-08  6.15672E-08  7.84017E-08  1.04956E-07
 -108.0000  3.54701E-08  4.54745E-08  4.65529E-10  2.59835E-08  2.04395E-08  4.68886E-08  6.43242E-08  8.23586E-08  1.09799E-07
 -107.2000  3.73547E-08  4.76709E-08  4.92053E-10  2.72488E-08  2.14434E-08  4.91842E-08  6.72162E-08  8.65389E-08  1.14887E-07
 -106.4000  3.93513E-08  4.99847E-08  5.20229E-10  2.85824E-08  2.25021E-08  5.16048E-08  7.02505E-08  9.09561E-08  1.20235E-07
 -105.6000  4.14676E-08  5.24230E-08  5.50173E-10  2.99888E-08  2.36191E-08  5.41580E-08  7.34349E-08  9.56257E-08  1.25858E-07
 -104.8000  4.37118E-08  5.49932E-08  5.82004E-10  3.14722E-08  2.47979E-08  5.68521E-08  7.67778E-08  1.00564E-07  1.31771E-07
 -104.0000  4.60923E-08  5.77034E-08  6.15853E-10  3.30374E-08  2.60424E-08  5.96956E-08  8.02878E-08  1.05788E-07  1.37991E-07
 -103.2000  4.86184E-08  6.05621E-08  6.51861E-10  3.46894E-08  2.73565E-08  6.26977E-08  8.39744E-08  1.11316E-07  1.44536E-07
 -102.4000  5.12998E-08  6.35784E-08  6.90175E-10  3.64333E-08  2.87446E-08  6.58680E-08  8.78473E-08  1.17168E-07  1.51426E-07
 -101.6000  5.41476E-08  6.67622E-08  7.30960E-10  3.82751E-08  3.02113E-08  6.92174E-08  9.19173E-08  1.23365E-07  1.58680E-07
 -100.8000  5.71733E-08  7.01240E-08  7.74391E-10  4.02209E-08  3.17617E-08  7.27570E-08  9.61953E-08  1.29930E-07  1.66319E-07
 -100.0000  6.03895E-08  7.36748E-08  8.20656E-10  4.22772E-08  3.34011E-08  7.64989E-08  1.00693E-07  1.36888E-07  1.74368E-07
  -99.2000  6.38092E-08  7.74267E-08  8.69955E-10  4.44508E-08  3.51351E-08  8.04559E-08  1.05424E-07  1.44265E-07  1.82851E-07
  -98.4000  6.74469E-08  8.13925E-08  9.22508E-10  4.67494E-08  3.69697E-08  8.46415E-08  1.10401E-07  1.52088E-07  1.91793E-07
  -97.6000  7.13186E-08  8.55860E-08  9.78552E-10  4.91809E-08  3.89116E-08  8.90710E-08  1.15638E-07  1.60390E-07  2.01224E-07
  -96.8000  7.54412E-08  9.00218E-08  1.03834E-09  5.17540E-08  4.09678E-08  9.37601E-08  1.21151E-07  1.69201E-07  2.11173E-07
  -96.0000  7.98329E-08  9.47159E-08  1.10215E-09  5.44779E-08  4.31458E-08  9.87258E-08  1.26956E-07  1.78559E-07  2.21672E-07
  -95.2000  8.45126E-08  9.96852E-08  1.17027E-09  5.73621E-08  4.54534E-08  1.03986E-07  1.33070E-07  1.88498E-07  2.32756E-07
  -94.4000  8.95025E-08  1.04948E-07  1.24303E-09  6.04175E-08  4.78994E-08  1.09560E-07  1.39512E-07  1.99062E-07  2.44460E-07
  -93.6000  9.48258E-08  1.10523E-07  1.32078E-09  6.36555E-08  5.04933E-08  1.15470E-07  1.46302E-07  2.10295E-07  2.56825E-07
  -92.8000  1.00507E-07  1.16433E-07  1.40389E-09  6.70882E-08  5.32450E-08  1.21737E-07  1.53460E-07  2.22245E-07  2.69893E-07
  -92.0000  1.06574E-07  1.22700E-07  1.49276E-09  7.07287E-08  5.61650E-08  1.28386E-07  1.61009E-07  2.34961E-07  2.83709E-07
  -91.2000  1.13055E-07  1.29347E-07  1.58784E-09  7.45907E-08  5.92648E-08  1.35443E-07  1.68973E-07  2.48498E-07  2.98320E-07
  -90.4000  1.19983E-07  1.36402E-07  1.68960E-09  7.86899E-08  6.25571E-08  1.42937E-07  1.77377E-07  2.62920E-07  3.13779E-07
  -89.6000  1.27393E-07  1.43893E-07  1.79857E-09  8.30425E-08  6.60552E-08  1.50896E-07  1.86250E-07  2.78289E-07  3.30142E-07
  -88.8000  1.35322E-07  1.51849E-07  1.91531E-09  8.76660E-08  6.97737E-08  1.59355E-07  1.95620E-07  2.94677E-07  3.47469E-07
  -88.0000  1.43810E-07  1.60305E-07  2.04041E-09  9.25786E-08  7.37274E-08  1.68346E-07  2.05518E-07  3.12156E-07  3.65824E-07
  -87.2000  1.52903E-07  1.69296E-07  2.17455E-09  9.78014E-08  7.79337E-08  1.77910E-07  2.15979E-07  3.30813E-07  3.85275E-07
  -86.4000  1.62651E-07  1.78860E-07  2.31845E-09  1.03356E-07  8.24107E-08  1.88086E-07  2.27038E-07  3.50737E-07  4.05898E-07
  -85.6000  1.73106E-07  1.89038E-07  2.47289E-09  1.09267E-07  8.71780E-08  1.98918E-07  2.38735E-07  3.72025E-07  4.27773E-07
  -84.8000  1.84324E-07  1.99876E-07  2.63872E-09  1.15559E-07  9.22559E-08  2.10453E-07  2.51109E-07  3.94778E-07  4.50985E-07
  -84.0000  1.96371E-07  2.11422E-07  2.81687E-09  1.22259E-07  9.76680E-08  2.22744E-07  2.64206E-07  4.19115E-07  4.75629E-07
  -83.2000  2.09315E-07  2.23730E-07  3.00836E-09  1.29398E-07  1.03439E-07  2.35846E-07  2.78074E-07  4.45161E-07  5.01804E-07
  -82.4000  2.23234E-07  2.36856E-07  3.21430E-09  1.37009E-07  1.09596E-07  2.49819E-07  2.92763E-07  4.73053E-07  5.29619E-07
  -81.6000  2.38206E-07  2.50862E-07  3.43586E-09  1.45125E-07  1.16166E-07  2.64727E-07  3.08328E-07  5.02933E-07  5.59190E-07
  -80.8000  2.54325E-07  2.65816E-07  3.67438E-09  1.53785E-07  1.23182E-07  2.80641E-07  3.24830E-07  5.34966E-07  5.90646E-07
  -80.0000  2.71691E-07  2.81791E-07  3.93130E-09  1.63029E-07  1.30678E-07  2.97639E-07  3.42331E-07  5.69331E-07  6.24122E-07
  -79.2000  2.90415E-07  2.98867E-07  4.20820E-09  1.72904E-07  1.38692E-07  3.15804E-07  3.60900E-07  6.06219E-07  6.59767E-07
  -78.4000  3.10612E-07  3.17131E-07  4.50677E-09  1.83455E-07  1.47261E-07  3.35223E-07  3.80610E-07  6.45836E-07  6.97741E-07
  -77.6000  3.32418E-07  3.36677E-07  4.82891E-09  1.94736E-07  1.56431E-07  3.55997E-07  4.01543E-07  6.88414E-07  7.38219E-07
  -76.8000  3.55979E-07  3.57608E-07  5.17669E-09  2.06805E-07  1.66250E-07  3.78231E-07  4.23782E-07  7.34210E-07  7.81390E-07
