    Energy      s          Int(s)         px           py           pz           p          Int(p)       total      Int(total) 
 -200.0000  3.60187E-07  2.11786E-08  3.20567E-09  4.33677E-07  2.07496E-07  6.44379E-07  3.78888E-08  1.00457E-06  5.90674E-08
 -199.2000  3.66441E-07  4.27249E-08  3.27562E-09  4.40404E-07  2.10920E-07  6.54600E-07  7.63786E-08  1.02104E-06  1.19103E-07
 -198.4000  3.72825E-07  6.46467E-08  3.34734E-09  4.47258E-07  2.14411E-07  6.65016E-07  1.15481E-07  1.03784E-06  1.80127E-07
 -197.6000  3.79344E-07  8.69517E-08  3.42088E-09  4.54240E-07  2.17971E-07  6.75632E-07  1.55207E-07  1.05498E-06  2.42159E-07
 -196.8000  3.86001E-07  1.09648E-07  3.49628E-09  4.61353E-07  2.21601E-07  6.86451E-07  1.95570E-07  1.07245E-06  3.05218E-07
 -196.0000  3.92799E-07  1.32744E-07  3.57362E-09  4.68601E-07  2.25303E-07  6.97478E-07  2.36581E-07  1.09028E-06  3.69325E-07
 -195.2000  3.99742E-07  1.56249E-07  3.65293E-09  4.75987E-07  2.29079E-07  7.08719E-07  2.78253E-07  1.10846E-06  4.34501E-07
 -194.4000  4.06833E-07  1.80170E-07  3.73429E-09  4.83513E-07  2.32931E-07  7.20178E-07  3.20598E-07  1.12701E-06  5.00768E-07
 -193.6000  4.14076E-07  2.04517E-07  3.81775E-09  4.91183E-07  2.36859E-07  7.31860E-07  3.63631E-07  1.14594E-06  5.68148E-07
 -192.8000  4.21475E-07  2.29299E-07  3.90338E-09  4.99000E-07  2.40867E-07  7.43770E-07  4.07364E-07  1.16525E-06  6.36663E-07
 -192.0000  4.29035E-07  2.54526E-07  3.99123E-09  5.06967E-07  2.44956E-07  7.55914E-07  4.51811E-07  1.18495E-06  7.06337E-07
 -191.2000  4.36759E-07  2.80207E-07  4.08137E-09  5.15088E-07  2.49127E-07  7.68297E-07  4.96986E-07  1.20506E-06  7.77193E-07
 -190.4000  4.44651E-07  3.06352E-07  4.17388E-09  5.23367E-07  2.53383E-07  7.80925E-07  5.42903E-07  1.22558E-06  8.49255E-07
 -189.6000  4.52716E-07  3.32971E-07  4.26883E-09  5.31807E-07  2.57727E-07  7.93803E-07  5.89578E-07  1.24652E-06  9.22549E-07
 -188.8000  4.60959E-07  3.60075E-07  4.36629E-09  5.40412E-07  2.62159E-07  8.06937E-07  6.37025E-07  1.26790E-06  9.97100E-07
 -188.0000  4.69384E-07  3.87675E-07  4.46633E-09  5.49186E-07  2.66682E-07  8.20334E-07  6.85260E-07  1.28972E-06  1.07293E-06
 -187.2000  4.77996E-07  4.15780E-07  4.56903E-09  5.58132E-07  2.71299E-07  8.34000E-07  7.34298E-07  1.31200E-06  1.15008E-06
 -186.4000  4.86799E-07  4.44403E-07  4.67448E-09  5.67256E-07  2.76011E-07  8.47941E-07  7.84156E-07  1.33474E-06  1.22856E-06
 -185.6000  4.95800E-07  4.73556E-07  4.78276E-09  5.76560E-07  2.80821E-07  8.62164E-07  8.34850E-07  1.35796E-06  1.30841E-06
 -184.8000  5.05003E-07  5.03250E-07  4.89396E-09  5.86049E-07  2.85732E-07  8.76675E-07  8.86398E-07  1.38168E-06  1.38965E-06
 -184.0000  5.14414E-07  5.33497E-07  5.00817E-09  5.95728E-07  2.90746E-07  8.91482E-07  9.38816E-07  1.40590E-06  1.47231E-06
 -183.2000  5.24038E-07  5.64309E-07  5.12548E-09  6.05601E-07  2.95865E-07  9.06592E-07  9.92123E-07  1.43063E-06  1.55643E-06
 -182.4000  5.33881E-07  5.95701E-07  5.24599E-09  6.15674E-07  3.01092E-07  9.22011E-07  1.04634E-06  1.45589E-06  1.64204E-06
 -181.6000  5.43949E-07  6.27685E-07  5.36981E-09  6.25950E-07  3.06430E-07  9.37749E-07  1.10147E-06  1.48170E-06  1.72916E-06
 -180.8000  5.54249E-07  6.60274E-07  5.49702E-09  6.36434E-07  3.11881E-07  9.53812E-07  1.15756E-06  1.50806E-06  1.81783E-06
 -180.0000  5.64786E-07  6.93483E-07  5.62775E-09  6.47133E-07  3.17449E-07  9.70209E-07  1.21460E-06  1.53500E-06  1.90809E-06
 -179.2000  5.75567E-07  7.27325E-07  5.76210E-09  6.58050E-07  3.23136E-07  9.86948E-07  1.27264E-06  1.56252E-06  1.99996E-06
 -178.4000  5.86599E-07  7.61817E-07  5.90020E-09  6.69191E-07  3.28946E-07  1.00404E-06  1.33167E-06  1.59064E-06  2.09349E-06
 -177.6000  5.97890E-07  7.96972E-07  6.04215E-09  6.80563E-07  3.34881E-07  1.02149E-06  1.39173E-06  1.61938E-06  2.18871E-06
 -176.8000  6.09445E-07  8.32807E-07  6.18809E-09  6.92170E-07  3.40944E-07  1.03930E-06  1.45284E-06  1.64875E-06  2.28565E-06
 -176.0000  6.21274E-07  8.69337E-07  6.33815E-09  7.04018E-07  3.47140E-07  1.05750E-06  1.51502E-06  1.67877E-06  2.38436E-06
 -175.2000  6.33382E-07  9.06579E-07  6.49245E-09  7.16114E-07  3.53472E-07  1.07608E-06  1.57830E-06  1.70946E-06  2.48488E-06
 -174.4000  6.45780E-07  9.44550E-07  6.65114E-09  7.28464E-07  3.59942E-07  1.09506E-06  1.64268E-06  1.74084E-06  2.58724E-06
 -173.6000  6.58473E-07  9.83268E-07  6.81436E-09  7.41074E-07  3.66555E-07  1.11444E-06  1.70821E-06  1.77292E-06  2.69148E-06
 -172.8000  6.71472E-07  1.02275E-06  6.98226E-09  7.53950E-07  3.73314E-07  1.13425E-06  1.77491E-06  1.80572E-06  2.79766E-06
 -172.0000  6.84785E-07  1.06301E-06  7.15499E-09  7.67100E-07  3.80224E-07  1.15448E-06  1.84279E-06  1.83926E-06  2.90580E-06
 -171.2000  6.98421E-07  1.10408E-06  7.33273E-09  7.80530E-07  3.87288E-07  1.17515E-06  1.91189E-06  1.87357E-06  3.01597E-06
 -170.4000  7.12389E-07  1.14597E-06  7.51562E-09  7.94248E-07  3.94510E-07  1.19627E-06  1.98222E-06  1.90866E-06  3.12819E-06
 -169.6000  7.26700E-07  1.18870E-06  7.70386E-09  8.08261E-07  4.01894E-07  1.21786E-06  2.05383E-06  1.94456E-06  3.24253E-06
 -168.8000  7.41363E-07  1.23229E-06  7.89761E-09  8.22577E-07  4.09445E-07  1.23992E-06  2.12674E-06  1.98128E-06  3.35903E-06
 -168.0000  7.56389E-07  1.27676E-06  8.09707E-09  8.37203E-07  4.17168E-07  1.26247E-06  2.20097E-06  2.01886E-06  3.47773E-06
 -167.2000  7.71788E-07  1.32214E-06  8.30242E-09  8.52147E-07  4.25067E-07  1.28552E-06  2.27656E-06  2.05730E-06  3.59870E-06
 -166.4000  7.87572E-07  1.36845E-06  8.51388E-09  8.67419E-07  4.33146E-07  1.30908E-06  2.35353E-06  2.09665E-06  3.72198E-06
 -165.6000  8.03752E-07  1.41571E-06  8.73164E-09  8.83027E-07  4.41411E-07  1.33317E-06  2.43192E-06  2.13692E-06  3.84763E-06
 -164.8000  8.20341E-07  1.46395E-06  8.95594E-09  8.98979E-07  4.49866E-07  1.35780E-06  2.51176E-06  2.17814E-06  3.97570E-06
 -164.0000  8.37350E-07  1.51318E-06  9.18699E-09  9.15285E-07  4.58518E-07  1.38299E-06  2.59308E-06  2.22034E-06  4.10626E-06
 -163.2000  8.54793E-07  1.56344E-06  9.42503E-09  9.31954E-07  4.67371E-07  1.40875E-06  2.67591E-06  2.26354E-06  4.23935E-06
 -162.4000  8.72682E-07  1.61476E-06  9.67031E-09  9.48995E-07  4.76431E-07  1.43510E-06  2.76029E-06  2.30778E-06  4.37505E-06
 -161.6000  8.91033E-07  1.66715E-06  9.92307E-09  9.66420E-07  4.85704E-07  1.46205E-06  2.84626E-06  2.35308E-06  4.51340E-06
 -160.8000  9.09858E-07  1.72065E-06  1.01836E-08  9.84238E-07  4.95195E-07  1.48962E-06  2.93384E-06  2.39948E-06  4.65449E-06
 -160.0000  9.29173E-07  1.77528E-06  1.04521E-08  1.00246E-06  5.04912E-07  1.51783E-06  3.02309E-06  2.44700E-06  4.79837E-06
 -159.2000  9.48993E-07  1.83108E-06  1.07290E-08  1.02110E-06  5.14860E-07  1.54669E-06  3.11403E-06  2.49568E-06  4.94512E-06
 -158.4000  9.69334E-07  1.88808E-06  1.10145E-08  1.04016E-06  5.25045E-07  1.57622E-06  3.20672E-06  2.54556E-06  5.09479E-06
 -157.6000  9.90213E-07  1.94630E-06  1.13089E-08  1.05967E-06  5.35475E-07  1.60645E-06  3.30117E-06  2.59666E-06  5.24747E-06
 -156.8000  1.01165E-06  2.00578E-06  1.16126E-08  1.07962E-06  5.46157E-07  1.63739E-06  3.39745E-06  2.64903E-06  5.40323E-06
 -156.0000  1.03365E-06  2.06656E-06  1.19258E-08  1.10004E-06  5.57097E-07  1.66906E-06  3.49559E-06  2.70271E-06  5.56215E-06
 -155.2000  1.05625E-06  2.12867E-06  1.22490E-08  1.12093E-06  5.68304E-07  1.70148E-06  3.59563E-06  2.75773E-06  5.72430E-06
 -154.4000  1.07945E-06  2.19214E-06  1.25825E-08  1.14231E-06  5.79785E-07  1.73468E-06  3.69763E-06  2.81413E-06  5.88977E-06
 -153.6000  1.10329E-06  2.25701E-06  1.29267E-08  1.16420E-06  5.91549E-07  1.76867E-06  3.80163E-06  2.87196E-06  6.05864E-06
 -152.8000  1.12778E-06  2.32332E-06  1.32820E-08  1.18660E-06  6.03602E-07  1.80349E-06  3.90767E-06  2.93126E-06  6.23099E-06
 -152.0000  1.15294E-06  2.39111E-06  1.36488E-08  1.20954E-06  6.15955E-07  1.83914E-06  4.01581E-06  2.99208E-06  6.40692E-06
 -151.2000  1.17879E-06  2.46043E-06  1.40275E-08  1.23302E-06  6.28615E-07  1.87567E-06  4.12610E-06  3.05446E-06  6.58652E-06
 -150.4000  1.20536E-06  2.53130E-06  1.44186E-08  1.25707E-06  6.41593E-07  1.91308E-06  4.23858E-06  3.11845E-06  6.76988E-06
 -149.6000  1.23268E-06  2.60378E-06  1.48225E-08  1.28170E-06  6.54897E-07  1.95142E-06  4.35332E-06  3.18410E-06  6.95710E-06
 -148.8000  1.26076E-06  2.67791E-06  1.52398E-08  1.30693E-06  6.68538E-07  1.99071E-06  4.47038E-06  3.25146E-06  7.14829E-06
 -148.0000  1.28963E-06  2.75374E-06  1.56710E-08  1.33277E-06  6.82526E-07  2.03097E-06  4.58979E-06  3.32059E-06  7.34353E-06
 -147.2000  1.31932E-06  2.83131E-06  1.61165E-08  1.35924E-06  6.96871E-07  2.07223E-06  4.71164E-06  3.39155E-06  7.54295E-06
 -146.4000  1.34986E-06  2.91068E-06  1.65770E-08  1.38637E-06  7.11583E-07  2.11453E-06  4.83597E-06  3.46439E-06  7.74666E-06
 -145.6000  1.38128E-06  2.99190E-06  1.70531E-08  1.41417E-06  7.26675E-07  2.15790E-06  4.96285E-06  3.53917E-06  7.95476E-06
 -144.8000  1.41360E-06  3.07502E-06  1.75452E-08  1.44266E-06  7.42159E-07  2.20236E-06  5.09235E-06  3.61596E-06  8.16737E-06
 -144.0000  1.44687E-06  3.16009E-06  1.80542E-08  1.47186E-06  7.58046E-07  2.24796E-06  5.22453E-06  3.69483E-06  8.38462E-06
 -143.2000  1.48111E-06  3.24718E-06  1.85806E-08  1.50179E-06  7.74350E-07  2.29473E-06  5.35945E-06  3.77583E-06  8.60664E-06
 -142.4000  1.51635E-06  3.33634E-06  1.91252E-08  1.53249E-06  7.91082E-07  2.34269E-06  5.49720E-06  3.85905E-06  8.83355E-06
 -141.6000  1.55264E-06  3.42764E-06  1.96886E-08  1.56396E-06  8.08256E-07  2.39190E-06  5.63784E-06  3.94454E-06  9.06548E-06
 -140.8000  1.59001E-06  3.52113E-06  2.02717E-08  1.59623E-06  8.25888E-07  2.44239E-06  5.78145E-06  4.03240E-06  9.30258E-06
 -140.0000  1.62850E-06  3.61688E-06  2.08752E-08  1.62934E-06  8.43991E-07  2.49421E-06  5.92811E-06  4.12270E-06  9.54499E-06
 -139.2000  1.66815E-06  3.71497E-06  2.14999E-08  1.66330E-06  8.62581E-07  2.54738E-06  6.07789E-06  4.21553E-06  9.79286E-06
 -138.4000  1.70900E-06  3.81545E-06  2.21468E-08  1.69814E-06  8.81673E-07  2.60196E-06  6.23089E-06  4.31096E-06  1.00463E-05
 -137.6000  1.75110E-06  3.91842E-06  2.28168E-08  1.73389E-06  9.01283E-07  2.65799E-06  6.38717E-06  4.40909E-06  1.03056E-05
 -136.8000  1.79449E-06  4.02393E-06  2.35108E-08  1.77058E-06  9.21429E-07  2.71552E-06  6.54684E-06  4.51001E-06  1.05708E-05
 -136.0000  1.83922E-06  4.13207E-06  2.42298E-08  1.80824E-06  9.42128E-07  2.77459E-06  6.70999E-06  4.61381E-06  1.08421E-05
 -135.2000  1.88535E-06  4.24293E-06  2.49748E-08  1.84689E-06  9.63398E-07  2.83527E-06  6.87670E-06  4.72061E-06  1.11196E-05
 -134.4000  1.93292E-06  4.35658E-06  2.57471E-08  1.88658E-06  9.85260E-07  2.89759E-06  7.04707E-06  4.83050E-06  1.14037E-05
 -133.6000  1.98199E-06  4.47312E-06  2.65476E-08  1.92734E-06  1.00773E-06  2.96162E-06  7.22121E-06  4.94360E-06  1.16943E-05
 -132.8000  2.03261E-06  4.59264E-06  2.73777E-08  1.96919E-06  1.03083E-06  3.02740E-06  7.39922E-06  5.06001E-06  1.19919E-05
 -132.0000  2.08485E-06  4.71522E-06  2.82387E-08  2.01218E-06  1.05459E-06  3.09500E-06  7.58120E-06  5.17986E-06  1.22964E-05
 -131.2000  2.13878E-06  4.84098E-06  2.91317E-08  2.05634E-06  1.07901E-06  3.16449E-06  7.76727E-06  5.30326E-06  1.26083E-05
 -130.4000  2.19444E-06  4.97001E-06  3.00584E-08  2.10172E-06  1.10414E-06  3.23592E-06  7.95754E-06  5.43036E-06  1.29276E-05
 -129.6000  2.25193E-06  5.10242E-06  3.10200E-08  2.14835E-06  1.12999E-06  3.30936E-06  8.15213E-06  5.56129E-06  1.32545E-05
 -128.8000  2.31130E-06  5.23833E-06  3.20183E-08  2.19628E-06  1.15658E-06  3.38488E-06  8.35115E-06  5.69618E-06  1.35895E-05
 -128.0000  2.37263E-06  5.37783E-06  3.30547E-08  2.24555E-06  1.18395E-06  3.46255E-06  8.55475E-06  5.83517E-06  1.39326E-05
 -127.2000  2.43600E-06  5.52107E-06  3.41310E-08  2.29620E-06  1.21211E-06  3.54244E-06  8.76304E-06  5.97844E-06  1.42841E-05
 -126.4000  2.50149E-06  5.66815E-06  3.52491E-08  2.34829E-06  1.24110E-06  3.62464E-06  8.97616E-06  6.12613E-06  1.46443E-05
 -125.6000  2.56920E-06  5.81922E-06  3.64107E-08  2.40186E-06  1.27095E-06  3.70922E-06  9.19426E-06  6.27842E-06  1.50135E-05
 -124.8000  2.63920E-06  5.97440E-06  3.76179E-08  2.45696E-06  1.30169E-06  3.79627E-06  9.41748E-06  6.43548E-06  1.53919E-05
 -124.0000  2.71161E-06  6.13384E-06  3.88728E-08  2.51366E-06  1.33335E-06  3.88588E-06  9.64596E-06  6.59748E-06  1.57798E-05
 -123.2000  2.78650E-06  6.29768E-06  4.01776E-08  2.57199E-06  1.36596E-06  3.97813E-06  9.87987E-06  6.76463E-06  1.61776E-05
 -122.4000  2.86400E-06  6.46608E-06  4.15346E-08  2.63203E-06  1.39956E-06  4.07312E-06  1.01194E-05  6.93712E-06  1.65855E-05
 -121.6000  2.94421E-06  6.63920E-06  4.29462E-08  2.69384E-06  1.43418E-06  4.17096E-06  1.03646E-05  7.11517E-06  1.70038E-05
 -120.8000  3.02725E-06  6.81720E-06  4.44151E-08  2.75747E-06  1.46986E-06  4.27175E-06  1.06158E-05  7.29900E-06  1.74330E-05
 -120.0000  3.11324E-06  7.00025E-06  4.59440E-08  2.82300E-06  1.50665E-06  4.37559E-06  1.08731E-05  7.48883E-06  1.78733E-05
 -119.2000  3.20229E-06  7.18855E-06  4.75355E-08  2.89048E-06  1.54457E-06  4.48259E-06  1.11366E-05  7.68489E-06  1.83252E-05
 -118.4000  3.29456E-06  7.38226E-06  4.91930E-08  2.96000E-06  1.58369E-06  4.59288E-06  1.14067E-05  7.88745E-06  1.87890E-05
 -117.6000  3.39019E-06  7.58160E-06  5.09194E-08  3.03164E-06  1.62403E-06  4.70659E-06  1.16834E-05  8.09678E-06  1.92650E-05
 -116.8000  3.48932E-06  7.78677E-06  5.27184E-08  3.10546E-06  1.66565E-06  4.82383E-06  1.19671E-05  8.31315E-06  1.97538E-05
 -116.0000  3.59211E-06  7.99798E-06  5.45932E-08  3.18155E-06  1.70860E-06  4.94475E-06  1.22578E-05  8.53685E-06  2.02558E-05
 -115.2000  3.69871E-06  8.21546E-06  5.65478E-08  3.26000E-06  1.75292E-06  5.06947E-06  1.25559E-05  8.76818E-06  2.07714E-05
 -114.4000  3.80931E-06  8.43945E-06  5.85860E-08  3.34089E-06  1.79867E-06  5.19815E-06  1.28615E-05  9.00746E-06  2.13010E-05
 -113.6000  3.92409E-06  8.67018E-06  6.07122E-08  3.42432E-06  1.84592E-06  5.33095E-06  1.31750E-05  9.25504E-06  2.18452E-05
 -112.8000  4.04325E-06  8.90792E-06  6.29308E-08  3.51040E-06  1.89471E-06  5.46803E-06  1.34965E-05  9.51128E-06  2.24044E-05
 -112.0000  4.16698E-06  9.15293E-06  6.52464E-08  3.59921E-06  1.94510E-06  5.60956E-06  1.38264E-05  9.77654E-06  2.29793E-05
 -111.2000  4.29550E-06  9.40550E-06  6.76641E-08  3.69086E-06  1.99717E-06  5.75570E-06  1.41648E-05  1.00512E-05  2.35703E-05
 -110.4000  4.42904E-06  9.66592E-06  7.01890E-08  3.78548E-06  2.05098E-06  5.90664E-06  1.45121E-05  1.03357E-05  2.41780E-05
 -109.6000  4.56784E-06  9.93451E-06  7.28270E-08  3.88317E-06  2.10660E-06  6.06259E-06  1.48686E-05  1.06304E-05  2.48031E-05
 -108.8000  4.71215E-06  1.02116E-05  7.55839E-08  3.98406E-06  2.16410E-06  6.22375E-06  1.52345E-05  1.09359E-05  2.54461E-05
 -108.0000  4.86225E-06  1.04975E-05  7.84660E-08  4.08829E-06  2.22357E-06  6.39032E-06  1.56103E-05  1.12526E-05  2.61077E-05
 -107.2000  5.01840E-06  1.07925E-05  8.14798E-08  4.19597E-06  2.28507E-06  6.56253E-06  1.59961E-05  1.15809E-05  2.67887E-05
 -106.4000  5.18091E-06  1.10972E-05  8.46326E-08  4.30726E-06  2.34871E-06  6.74060E-06  1.63925E-05  1.19215E-05  2.74896E-05
 -105.6000  5.35012E-06  1.14118E-05  8.79320E-08  4.42231E-06  2.41457E-06  6.92480E-06  1.67996E-05  1.22749E-05  2.82114E-05
 -104.8000  5.52634E-06  1.17367E-05  9.13860E-08  4.54127E-06  2.48274E-06  7.11539E-06  1.72180E-05  1.26417E-05  2.89547E-05
 -104.0000  5.70995E-06  1.20724E-05  9.50030E-08  4.66431E-06  2.55332E-06  7.31263E-06  1.76480E-05  1.30226E-05  2.97204E-05
 -103.2000  5.90128E-06  1.24194E-05  9.87919E-08  4.79158E-06  2.62642E-06  7.51679E-06  1.80900E-05  1.34181E-05  3.05094E-05
 -102.4000  6.10078E-06  1.27782E-05  1.02763E-07  4.92328E-06  2.70214E-06  7.72819E-06  1.85444E-05  1.38290E-05  3.13225E-05
 -101.6000  6.30887E-06  1.31491E-05  1.06925E-07  5.05960E-06  2.78061E-06  7.94714E-06  1.90117E-05  1.42560E-05  3.21608E-05
 -100.8000  6.52601E-06  1.35328E-05  1.11291E-07  5.20075E-06  2.86195E-06  8.17399E-06  1.94923E-05  1.47000E-05  3.30251E-05
 -100.0000  6.75267E-06  1.39299E-05  1.15872E-07  5.34693E-06  2.94627E-06  8.40908E-06  1.99867E-05  1.51617E-05  3.39166E-05
  -99.2000  6.98930E-06  1.43408E-05  1.20679E-07  5.49833E-06  3.03371E-06  8.65273E-06  2.04955E-05  1.56420E-05  3.48363E-05
  -98.4000  7.23654E-06  1.47663E-05  1.25727E-07  5.65523E-06  3.12443E-06  8.90538E-06  2.10191E-05  1.61419E-05  3.57855E-05
  -97.6000  7.49494E-06  1.52070E-05  1.31029E-07  5.81786E-06  3.21856E-06  9.16745E-06  2.15582E-05  1.66624E-05  3.67652E-05
  -96.8000  7.76513E-06  1.56636E-05  1.36601E-07  5.98649E-06  3.31627E-06  9.43935E-06  2.21132E-05  1.72045E-05  3.77768E-05
  -96.0000  8.04772E-06  1.61368E-05  1.42458E-07  6.16136E-06  3.41771E-06  9.72152E-06  2.26848E-05  1.77692E-05  3.88216E-05
  -95.2000  8.34344E-06  1.66274E-05  1.48619E-07  6.34277E-06  3.52306E-06  1.00144E-05  2.32736E-05  1.83579E-05  3.99010E-05
  -94.4000  8.65306E-06  1.71362E-05  1.55101E-07  6.53103E-06  3.63252E-06  1.03186E-05  2.38804E-05  1.89717E-05  4.10166E-05
  -93.6000  8.97739E-06  1.76641E-05  1.61926E-07  6.72648E-06  3.74628E-06  1.06347E-05  2.45057E-05  1.96121E-05  4.21697E-05
  -92.8000  9.31728E-06  1.82119E-05  1.69113E-07  6.92944E-06  3.86454E-06  1.09631E-05  2.51503E-05  2.02804E-05  4.33622E-05
  -92.0000  9.67354E-06  1.87807E-05  1.76684E-07  7.14023E-06  3.98750E-06  1.13044E-05  2.58150E-05  2.09780E-05  4.45957E-05
  -91.2000  1.00473E-05  1.93715E-05  1.84666E-07  7.35927E-06  4.11543E-06  1.16594E-05  2.65005E-05  2.17066E-05  4.58720E-05
  -90.4000  1.04395E-05  1.99853E-05  1.93084E-07  7.58697E-06  4.24856E-06  1.20286E-05  2.72078E-05  2.24681E-05  4.71931E-05
  -89.6000  1.08514E-05  2.06233E-05  2.01967E-07  7.82375E-06  4.38715E-06  1.24129E-05  2.79377E-05  2.32643E-05  4.85610E-05
  -88.8000  1.12841E-05  2.12868E-05  2.11344E-07  8.07000E-06  4.53146E-06  1.28128E-05  2.86910E-05  2.40969E-05  4.99779E-05
  -88.0000  1.17389E-05  2.19771E-05  2.21249E-07  8.32625E-06  4.68179E-06  1.32293E-05  2.94689E-05  2.49681E-05  5.14460E-05
  -87.2000  1.22172E-05  2.26954E-05  2.31716E-07  8.59300E-06  4.83846E-06  1.36632E-05  3.02723E-05  2.58804E-05  5.29677E-05
  -86.4000  1.27206E-05  2.34434E-05  2.42783E-07  8.87079E-06  5.00180E-06  1.41154E-05  3.11023E-05  2.68360E-05  5.45456E-05
  -85.6000  1.32505E-05  2.42225E-05  2.54491E-07  9.16015E-06  5.17213E-06  1.45868E-05  3.19599E-05  2.78373E-05  5.61824E-05
  -84.8000  1.38088E-05  2.50344E-05  2.66883E-07  9.46168E-06  5.34984E-06  1.50784E-05  3.28465E-05  2.88872E-05  5.78810E-05
  -84.0000  1.43974E-05  2.58810E-05  2.80008E-07  9.77606E-06  5.53533E-06  1.55914E-05  3.37633E-05  2.99888E-05  5.96443E-05
  -83.2000  1.50182E-05  2.67641E-05  2.93918E-07  1.01040E-05  5.72902E-06  1.61269E-05  3.47115E-05  3.11451E-05  6.14756E-05
  -82.4000  1.56735E-05  2.76856E-05  3.08666E-07  1.04461E-05  5.93134E-06  1.66861E-05  3.56927E-05  3.23596E-05  6.33783E-05
  -81.6000  1.63655E-05  2.86479E-05  3.24312E-07  1.08032E-05  6.14275E-06  1.72702E-05  3.67081E-05  3.36357E-05  6.53560E-05
  -80.8000  1.70968E-05  2.96532E-05  3.40923E-07  1.11761E-05  6.36380E-06  1.78808E-05  3.77595E-05  3.49776E-05  6.74127E-05
  -80.0000  1.78703E-05  3.07039E-05  3.58570E-07  1.15658E-05  6.59503E-06  1.85194E-05  3.88484E-05  3.63897E-05  6.95524E-05
  -79.2000  1.86889E-05  3.18028E-05  3.77327E-07  1.19730E-05  6.83697E-06  1.91873E-05  3.99766E-05  3.78762E-05  7.17794E-05
  -78.4000  1.95557E-05  3.29527E-05  3.97277E-07  1.23988E-05  7.09025E-06  1.98864E-05  4.11459E-05  3.94421E-05  7.40986E-05
  -77.6000  2.04744E-05  3.41566E-05  4.18513E-07  1.28444E-05  7.35556E-06  2.06184E-05  4.23583E-05  4.10929E-05  7.65148E-05
  -76.8000  2.14490E-05  3.54177E-05  4.41132E-07  1.33107E-05  7.63360E-06  2.13855E-05  4.36157E-05  4.28344E-05  7.90334E-05
