    Energy      s          Int(s)         px           py           pz           p          Int(p)       dx2-y2        dz2          dyz          dxz          dxy           d          Int(d)       total      Int(total) 
 -200.0000  3.18554E-16  1.87306E-17  2.72599E-16  1.55537E-16  2.04441E-16  6.32577E-16  3.71949E-17  1.50053E-16  6.41727E-17  3.01831E-16  3.91870E-17  3.71057E-17  5.92349E-16  3.48295E-17  1.54348E-15  9.07550E-17
 -199.2000  3.34626E-16  3.84063E-17  2.84958E-16  1.63687E-16  2.14791E-16  6.63436E-16  7.62042E-17  1.56415E-16  6.69350E-17  3.15527E-16  4.08480E-17  3.85933E-17  6.18318E-16  7.11859E-17  1.61638E-15  1.85796E-16
 -198.4000  3.51597E-16  5.90798E-17  2.97943E-16  1.72305E-16  2.25718E-16  6.95965E-16  1.17126E-16  1.63075E-16  6.98301E-17  3.29899E-16  4.25892E-17  4.01482E-17  6.45542E-16  1.09143E-16  1.69310E-15  2.85349E-16
 -197.6000  3.69520E-16  8.08072E-17  3.11588E-16  1.81421E-16  2.37256E-16  7.30265E-16  1.60065E-16  1.70050E-16  7.28651E-17  3.44982E-16  4.44150E-17  4.17742E-17  6.74086E-16  1.48779E-16  1.77387E-15  3.89651E-16
 -196.8000  3.88458E-16  1.03648E-16  3.25934E-16  1.91069E-16  2.49444E-16  7.66446E-16  2.05131E-16  1.77355E-16  7.60478E-17  3.60818E-16  4.63304E-17  4.34751E-17  7.04026E-16  1.90175E-16  1.85893E-15  4.98954E-16
 -196.0000  4.08470E-16  1.27666E-16  3.41018E-16  2.01280E-16  2.62321E-16  8.04618E-16  2.52442E-16  1.85007E-16  7.93859E-17  3.77444E-16  4.83401E-17  4.52546E-17  7.35431E-16  2.33417E-16  1.94852E-15  6.13525E-16
 -195.2000  4.29625E-16  1.52927E-16  3.56883E-16  2.12090E-16  2.75928E-16  8.44902E-16  3.02121E-16  1.93025E-16  8.28878E-17  3.94902E-16  5.04495E-17  4.71172E-17  7.68381E-16  2.78597E-16  2.04291E-15  7.33645E-16
 -194.4000  4.51994E-16  1.79504E-16  3.73575E-16  2.23538E-16  2.90313E-16  8.87427E-16  3.54301E-16  2.01427E-16  8.65627E-17  4.13239E-16  5.26643E-17  4.90672E-17  8.02960E-16  3.25810E-16  2.14238E-15  8.59615E-16
 -193.6000  4.75654E-16  2.07472E-16  3.91142E-16  2.35666E-16  3.05524E-16  9.32332E-16  4.09121E-16  2.10234E-16  9.04202E-17  4.32502E-16  5.49907E-17  5.11095E-17  8.39256E-16  3.75158E-16  2.24724E-15  9.91751E-16
 -192.8000  5.00687E-16  2.36912E-16  4.09636E-16  2.48516E-16  3.21612E-16  9.79764E-16  4.66730E-16  2.19469E-16  9.44704E-17  4.52741E-16  5.74351E-17  5.32493E-17  8.77365E-16  4.26746E-16  2.35782E-15  1.13039E-15
 -192.0000  5.27182E-16  2.67909E-16  4.29110E-16  2.62137E-16  3.38634E-16  1.02988E-15  5.27286E-16  2.29153E-16  9.87243E-17  4.74012E-16  6.00045E-17  5.54921E-17  9.17385E-16  4.80687E-16  2.47445E-15  1.27588E-15
 -191.2000  5.55231E-16  3.00556E-16  4.49624E-16  2.76579E-16  3.56648E-16  1.08285E-15  5.90956E-16  2.39312E-16  1.03194E-16  4.96371E-16  6.27065E-17  5.78439E-17  9.59426E-16  5.37100E-16  2.59751E-15  1.42861E-15
 -190.4000  5.84940E-16  3.34950E-16  4.71243E-16  2.91898E-16  3.75720E-16  1.13886E-15  6.57920E-16  2.49973E-16  1.07891E-16  5.19882E-16  6.55493E-17  6.03112E-17  1.00361E-15  5.96111E-16  2.72741E-15  1.58898E-15
 -189.6000  6.16411E-16  3.71195E-16  4.94030E-16  3.08149E-16  3.95916E-16  1.19810E-15  7.28367E-16  2.61161E-16  1.12829E-16  5.44605E-16  6.85409E-17  6.29002E-17  1.05004E-15  6.57852E-16  2.86454E-15  1.75741E-15
 -188.8000  6.49761E-16  4.09400E-16  5.18055E-16  3.25395E-16  4.17309E-16  1.26076E-15  8.02498E-16  2.72907E-16  1.18022E-16  5.70610E-16  7.16906E-17  6.56184E-17  1.09885E-15  7.22463E-16  3.00937E-15  1.93436E-15
 -188.0000  6.85112E-16  4.49684E-16  5.43395E-16  3.43702E-16  4.39975E-16  1.32707E-15  8.80529E-16  2.85240E-16  1.23484E-16  5.97968E-16  7.50081E-17  6.84732E-17  1.15017E-15  7.90092E-16  3.16236E-15  2.12030E-15
 -187.2000  7.22598E-16  4.92172E-16  5.70131E-16  3.63142E-16  4.63999E-16  1.39727E-15  9.62687E-16  2.98195E-16  1.29232E-16  6.26758E-16  7.85037E-17  7.14730E-17  1.20416E-15  8.60896E-16  3.32403E-15  2.31575E-15
 -186.4000  7.62360E-16  5.36997E-16  5.98348E-16  3.83792E-16  4.89470E-16  1.47161E-15  1.04922E-15  3.11806E-16  1.35283E-16  6.57060E-16  8.21888E-17  7.46266E-17  1.26096E-15  9.35039E-16  3.49493E-15  2.52125E-15
 -185.6000  8.04550E-16  5.84304E-16  6.28139E-16  4.05733E-16  5.16483E-16  1.55035E-15  1.14038E-15  3.26111E-16  1.41654E-16  6.88963E-16  8.60754E-17  7.79435E-17  1.32075E-15  1.01270E-15  3.67565E-15  2.73738E-15
 -184.8000  8.49336E-16  6.34244E-16  6.59606E-16  4.29055E-16  5.45143E-16  1.63380E-15  1.23644E-15  3.41150E-16  1.48366E-16  7.22561E-16  9.01766E-17  8.14341E-17  1.38369E-15  1.09406E-15  3.86683E-15  2.96474E-15
 -184.0000  8.96890E-16  6.86980E-16  6.92852E-16  4.53853E-16  5.75557E-16  1.72226E-15  1.33771E-15  3.56966E-16  1.55439E-16  7.57952E-16  9.45061E-17  8.51091E-17  1.44997E-15  1.17931E-15  4.06912E-15  3.20400E-15
 -183.2000  9.47398E-16  7.42686E-16  7.27988E-16  4.80226E-16  6.07844E-16  1.81606E-15  1.44449E-15  3.73602E-16  1.62894E-16  7.95237E-16  9.90785E-17  8.89799E-17  1.51979E-15  1.26868E-15  4.28325E-15  3.45585E-15
 -182.4000  1.00106E-15  8.01548E-16  7.65134E-16  5.08285E-16  6.42128E-16  1.91555E-15  1.55712E-15  3.91105E-16  1.70756E-16  8.34529E-16  1.03910E-16  9.30591E-17  1.59336E-15  1.36236E-15  4.50997E-15  3.72103E-15
 -181.6000  1.05810E-15  8.63763E-16  8.04422E-16  5.38146E-16  6.78547E-16  2.02111E-15  1.67596E-15  4.09528E-16  1.79050E-16  8.75947E-16  1.09017E-16  9.73603E-17  1.67090E-15  1.46061E-15  4.75012E-15  4.00034E-15
 -180.8000  1.11875E-15  9.29544E-16  8.45988E-16  5.69937E-16  7.17244E-16  2.13317E-15  1.80139E-15  4.28925E-16  1.87802E-16  9.19615E-16  1.14418E-16  1.01898E-16  1.75266E-15  1.56367E-15  5.00457E-15  4.29460E-15
 -180.0000  1.18325E-15  9.99118E-16  8.89982E-16  6.03793E-16  7.58377E-16  2.25215E-15  1.93381E-15  4.49352E-16  1.97041E-16  9.65669E-16  1.20133E-16  1.06688E-16  1.83888E-15  1.67179E-15  5.27429E-15  4.60472E-15
 -179.2000  1.25188E-15  1.07273E-15  9.36562E-16  6.39861E-16  8.02113E-16  2.37854E-15  2.07367E-15  4.70874E-16  2.06799E-16  1.01425E-15  1.26184E-16  1.11746E-16  1.92986E-15  1.78526E-15  5.56028E-15  4.93166E-15
 -178.4000  1.32494E-15  1.15063E-15  9.85907E-16  6.78303E-16  8.48639E-16  2.51285E-15  2.22142E-15  4.93559E-16  2.17111E-16  1.06553E-15  1.32594E-16  1.17093E-16  2.02588E-15  1.90438E-15  5.86368E-15  5.27644E-15
 -177.6000  1.40273E-15  1.23311E-15  1.03819E-15  7.19281E-16  8.98140E-16  2.65561E-15  2.37757E-15  5.17471E-16  2.28009E-16  1.11964E-15  1.39387E-16  1.22745E-16  2.12725E-15  2.02946E-15  6.18560E-15  5.64014E-15
 -176.8000  1.48558E-15  1.32046E-15  1.09361E-15  7.62981E-16  9.50828E-16  2.80742E-15  2.54264E-15  5.42688E-16  2.39533E-16  1.17677E-15  1.46589E-16  1.28726E-16  2.23431E-15  2.16084E-15  6.52731E-15  6.02394E-15
 -176.0000  1.57387E-15  1.41300E-15  1.15237E-15  8.09598E-16  1.00693E-15  2.96890E-15  2.71721E-15  5.69290E-16  2.51723E-16  1.23711E-15  1.54229E-16  1.35056E-16  2.34741E-15  2.29886E-15  6.89017E-15  6.42908E-15
 -175.2000  1.66797E-15  1.51108E-15  1.21471E-15  8.59346E-16  1.06668E-15  3.14074E-15  2.90188E-15  5.97363E-16  2.64623E-16  1.30084E-15  1.62338E-16  1.41761E-16  2.46693E-15  2.44392E-15  7.27563E-15  6.85688E-15
 -174.4000  1.76831E-15  1.61505E-15  1.28087E-15  9.12452E-16  1.13034E-15  3.32366E-15  3.09731E-15  6.26998E-16  2.78281E-16  1.36819E-15  1.70950E-16  1.48867E-16  2.59328E-15  2.59640E-15  7.68525E-15  7.30876E-15
 -173.6000  1.87535E-15  1.72532E-15  1.35111E-15  9.69164E-16  1.19819E-15  3.51846E-15  3.30419E-15  6.58293E-16  2.92747E-16  1.43937E-15  1.80100E-16  1.56404E-16  2.72691E-15  2.75674E-15  8.12072E-15  7.78625E-15
 -172.8000  1.98959E-15  1.84231E-15  1.42572E-15  1.02976E-15  1.27055E-15  3.72602E-15  3.52328E-15  6.91361E-16  3.08078E-16  1.51464E-15  1.89830E-16  1.64403E-16  2.86831E-15  2.92539E-15  8.58392E-15  8.29098E-15
 -172.0000  2.11153E-15  1.96646E-15  1.50499E-15  1.09451E-15  1.34773E-15  3.94722E-15  3.75537E-15  7.26305E-16  3.24330E-16  1.59424E-15  2.00178E-16  1.72895E-16  3.01795E-15  3.10284E-15  9.07670E-15  8.82468E-15
 -171.2000  2.24177E-15  2.09828E-15  1.58925E-15  1.16372E-15  1.43007E-15  4.18305E-15  4.00133E-15  7.63247E-16  3.41565E-16  1.67845E-15  2.11191E-16  1.81919E-16  3.17637E-15  3.28961E-15  9.60118E-15  9.38921E-15
 -170.4000  2.38090E-15  2.23827E-15  1.67886E-15  1.23775E-15  1.51796E-15  4.43457E-15  4.26208E-15  8.02316E-16  3.59853E-16  1.76756E-15  2.22919E-16  1.91512E-16  3.34416E-15  3.48624E-15  1.01596E-14  9.98659E-15
 -169.6000  2.52960E-15  2.38701E-15  1.77418E-15  1.31694E-15  1.61181E-15  4.70294E-15  4.53860E-15  8.43651E-16  3.79266E-16  1.86188E-15  2.35413E-16  2.01718E-16  3.52193E-15  3.69333E-15  1.07545E-14  1.06189E-14
 -168.8000  2.68859E-15  2.54509E-15  1.87564E-15  1.40170E-15  1.71206E-15  4.98939E-15  4.83198E-15  8.87400E-16  3.99883E-16  1.96177E-15  2.48733E-16  2.12583E-16  3.71036E-15  3.91149E-15  1.13883E-14  1.12886E-14
 -168.0000  2.85864E-15  2.71318E-15  1.98366E-15  1.49243E-15  1.81918E-15  5.29528E-15  5.14333E-15  9.33723E-16  4.21789E-16  2.06756E-15  2.62939E-16  2.24156E-16  3.91017E-15  4.14141E-15  1.20641E-14  1.19979E-14
 -167.2000  3.04063E-15  2.89197E-15  2.09875E-15  1.58963E-15  1.93371E-15  5.62209E-15  5.47390E-15  9.82801E-16  4.45078E-16  2.17968E-15  2.78104E-16  2.36496E-16  4.12216E-15  4.38379E-15  1.27849E-14  1.27497E-14
 -166.4000  3.23544E-15  3.08221E-15  2.22140E-15  1.69376E-15  2.05617E-15  5.97133E-15  5.82501E-15  1.03480E-15  4.69845E-16  2.29851E-15  2.94295E-16  2.49656E-16  4.34711E-15  4.63939E-15  1.35539E-14  1.35466E-14
 -165.6000  3.44406E-15  3.28471E-15  2.35216E-15  1.80536E-15  2.18718E-15  6.34470E-15  6.19807E-15  1.08993E-15  4.96198E-16  2.42449E-15  3.11594E-16  2.63704E-16  4.58592E-15  4.90904E-15  1.43747E-14  1.43918E-14
 -164.8000  3.66756E-15  3.50036E-15  2.49163E-15  1.92503E-15  2.32739E-15  6.74404E-15  6.59462E-15  1.14839E-15  5.24250E-16  2.55811E-15  3.30087E-16  2.78707E-16  4.83955E-15  5.19360E-15  1.52512E-14  1.52886E-14
 -164.0000  3.90711E-15  3.73010E-15  2.64046E-15  2.05339E-15  2.47749E-15  7.17134E-15  7.01628E-15  1.21042E-15  5.54127E-16  2.69988E-15  3.49868E-16  2.94742E-16  5.10904E-15  5.49400E-15  1.61875E-14  1.62404E-14
 -163.2000  4.16396E-15  3.97493E-15  2.79935E-15  2.19112E-15  2.63826E-15  7.62873E-15  7.46484E-15  1.27626E-15  5.85963E-16  2.85034E-15  3.71037E-16  3.11891E-16  5.39549E-15  5.81125E-15  1.71882E-14  1.72510E-14
 -162.4000  4.43948E-15  4.23597E-15  2.96906E-15  2.33897E-15  2.81052E-15  8.11855E-15  7.94221E-15  1.34618E-15  6.19904E-16  3.01009E-15  3.93707E-16  3.30246E-16  5.70012E-15  6.14641E-15  1.82582E-14  1.83246E-14
 -161.6000  4.73517E-15  4.51439E-15  3.15044E-15  2.49776E-15  2.99516E-15  8.64336E-15  8.45043E-15  1.42047E-15  6.56109E-16  3.17977E-15  4.17998E-16  3.49904E-16  6.02425E-15  6.50063E-15  1.94028E-14  1.94655E-14
 -160.8000  5.05262E-15  4.81148E-15  3.34433E-15  2.66835E-15  3.19316E-15  9.20583E-15  8.99172E-15  1.49942E-15  6.94744E-16  3.36005E-15  4.44039E-16  3.70971E-16  6.36922E-15  6.87514E-15  2.06277E-14  2.06783E-14
 -160.0000  5.39356E-15  5.12862E-15  3.55171E-15  2.85168E-15  3.40555E-15  9.80893E-15  9.56847E-15  1.58337E-15  7.35993E-16  3.55164E-15  4.71972E-16  3.93561E-16  6.73654E-15  7.27124E-15  2.19390E-14  2.19683E-14
 -159.2000  5.75991E-15  5.46729E-15  3.77362E-15  3.04878E-15  3.63347E-15  1.04559E-14  1.01833E-14  1.67266E-15  7.80056E-16  3.75535E-15  5.01951E-16  4.17802E-16  7.12783E-15  7.69035E-15  2.33436E-14  2.33409E-14
 -158.4000  6.15372E-15  5.82912E-15  4.01120E-15  3.26078E-15  3.87817E-15  1.11502E-14  1.08389E-14  1.76770E-15  8.27149E-16  3.97202E-15  5.34143E-16  4.43832E-16  7.54485E-15  8.13398E-15  2.48487E-14  2.48020E-14
 -157.6000  6.57724E-15  6.21586E-15  4.26567E-15  3.48890E-15  4.14099E-15  1.18956E-14  1.15383E-14  1.86889E-15  8.77506E-16  4.20256E-15  5.68734E-16  4.71801E-16  7.98949E-15  8.60375E-15  2.64623E-14  2.63579E-14
 -156.8000  7.03294E-15  6.62939E-15  4.53839E-15  3.73447E-15  4.42339E-15  1.26963E-14  1.22849E-14  1.97669E-15  9.31386E-16  4.44798E-15  6.05925E-16  5.01877E-16  8.46386E-15  9.10141E-15  2.81931E-14  2.80157E-14
 -156.0000  7.52346E-15  7.07176E-15  4.83079E-15  3.99893E-15  4.72696E-15  1.35567E-14  1.30820E-14  2.09159E-15  9.89060E-16  4.70931E-15  6.45930E-16  5.34236E-16  8.97012E-15  9.62885E-15  3.00503E-14  2.97826E-14
 -155.2000  8.05168E-15  7.54519E-15  5.14443E-15  4.28383E-15  5.05340E-15  1.44817E-14  1.39335E-14  2.21409E-15  1.05083E-15  4.98768E-15  6.88987E-16  5.69075E-16  9.51065E-15  1.01881E-14  3.20440E-14  3.16667E-14
 -154.4000  8.62076E-15  8.05208E-15  5.48103E-15  4.59089E-15  5.40459E-15  1.54765E-14  1.48435E-14  2.34476E-15  1.11701E-15  5.28433E-15  7.35353E-16  6.06607E-16  1.00881E-14  1.07812E-14  3.41853E-14  3.36768E-14
 -153.6000  9.23414E-15  8.59504E-15  5.84245E-15  4.92196E-15  5.78257E-15  1.65470E-14  1.58164E-14  2.48423E-15  1.18796E-15  5.60058E-15  7.85312E-16  6.47067E-16  1.07052E-14  1.14107E-14  3.64863E-14  3.58221E-14
 -152.8000  9.89557E-15  9.17689E-15  6.23071E-15  5.27908E-15  6.18955E-15  1.76993E-14  1.68571E-14  2.63315E-15  1.26407E-15  5.93787E-15  8.39171E-16  6.90712E-16  1.13650E-14  1.20789E-14  3.89599E-14  3.81129E-14
 -152.0000  1.06091E-14  9.80069E-15  6.64802E-15  5.66446E-15  6.62794E-15  1.89404E-14  1.79708E-14  2.79225E-15  1.34576E-15  6.29774E-15  8.97269E-16  7.37823E-16  1.20708E-14  1.27887E-14  4.16204E-14  4.05602E-14
 -151.2000  1.13794E-14  1.04698E-14  7.09683E-15  6.08054E-15  7.10042E-15  2.02778E-14  1.91631E-14  2.96233E-15  1.43347E-15  6.68192E-15  9.59977E-16  7.88712E-16  1.28264E-14  1.35429E-14  4.44836E-14  4.31758E-14
 -150.4000  1.22111E-14  1.11878E-14  7.57969E-15  6.52990E-15  7.60980E-15  2.17194E-14  2.04402E-14  3.14420E-15  1.52771E-15  7.09215E-15  1.02769E-15  8.43709E-16  1.36355E-14  1.43446E-14  4.75659E-14  4.59726E-14
 -149.6000  1.31096E-14  1.19586E-14  8.09947E-15  7.01544E-15  8.15922E-15  2.32741E-14  2.18087E-14  3.33880E-15  1.62900E-15  7.53038E-15  1.10085E-15  9.03184E-16  1.45022E-14  1.51973E-14  5.08860E-14  4.89646E-14
 -148.8000  1.40808E-14  1.27866E-14  8.65928E-15  7.54029E-15  8.75208E-15  2.49517E-14  2.32758E-14  3.54710E-15  1.73794E-15  7.99875E-15  1.17994E-15  9.67541E-16  1.54313E-14  1.61047E-14  5.44637E-14  5.21670E-14
 -148.0000  1.51310E-14  1.36762E-14  9.26253E-15  8.10788E-15  9.39210E-15  2.67625E-14  2.48494E-14  3.77021E-15  1.85517E-15  8.49953E-15  1.26548E-15  1.03722E-15  1.64276E-14  1.70706E-14  5.83211E-14  5.55963E-14
 -147.2000  1.62672E-14  1.46327E-14  9.91292E-15  8.72195E-15  1.00833E-14  2.87182E-14  2.65380E-14  4.00928E-15  1.98138E-15  9.03520E-15  1.35805E-15  1.11272E-15  1.74966E-14  1.80994E-14  6.24820E-14  5.92701E-14
 -146.4000  1.74971E-14  1.56615E-14  1.06146E-14  9.38666E-15  1.08303E-14  3.08315E-14  2.83509E-14  4.26565E-15  2.11734E-15  9.60852E-15  1.45829E-15  1.19457E-15  1.86444E-14  1.91956E-14  6.69730E-14  6.32081E-14
 -145.6000  1.88290E-14  1.67687E-14  1.13719E-14  1.01064E-14  1.16377E-14  3.31160E-14  3.02981E-14  4.54066E-15  2.26388E-15  1.02223E-14  1.56688E-15  1.28334E-15  1.98771E-14  2.03644E-14  7.18222E-14  6.74311E-14
 -144.8000  2.02721E-14  1.79606E-14  1.21896E-14  1.08862E-14  1.25110E-14  3.55868E-14  3.23905E-14  4.83583E-15  2.42191E-15  1.08798E-14  1.68458E-15  1.37970E-15  2.12018E-14  2.16110E-14  7.70607E-14  7.19622E-14
 -144.0000  2.18364E-14  1.92446E-14  1.30732E-14  1.17313E-14  1.34559E-14  3.82603E-14  3.46402E-14  5.15281E-15  2.59240E-15  1.15844E-14  1.81223E-15  1.48434E-15  2.26261E-14  2.29414E-14  8.27229E-14  7.68262E-14
 -143.2000  2.35330E-14  2.06283E-14  1.40284E-14  1.26476E-14  1.44787E-14  4.11547E-14  3.70601E-14  5.49339E-15  2.77646E-15  1.23397E-14  1.95072E-15  1.59803E-15  2.41583E-14  2.43619E-14  8.88460E-14  8.20503E-14
 -142.4000  2.53739E-14  2.21203E-14  1.50615E-14  1.36417E-14  1.55864E-14  4.42895E-14  3.96642E-14  5.85953E-15  2.97526E-15  1.31500E-14  2.10108E-15  1.72164E-15  2.58075E-14  2.58794E-14  9.54709E-14  8.76639E-14
 -141.6000  2.73726E-14  2.37298E-14  1.61797E-14  1.47206E-14  1.67866E-14  4.76868E-14  4.24682E-14  6.25343E-15  3.19011E-15  1.40195E-14  2.26440E-15  1.85612E-15  2.75836E-14  2.75013E-14  1.02643E-13  9.36992E-14
 -140.8000  2.95436E-14  2.54669E-14  1.73905E-14  1.58920E-14  1.80877E-14  5.13702E-14  4.54887E-14  6.67736E-15  3.42241E-15  1.49531E-14  2.44188E-15  2.00248E-15  2.94973E-14  2.92357E-14  1.10411E-13  1.00191E-13
 -140.0000  3.19029E-14  2.73427E-14  1.87022E-14  1.71646E-14  1.94987E-14  5.53655E-14  4.87441E-14  7.13387E-15  3.67373E-15  1.59560E-14  2.63485E-15  2.16188E-15  3.15603E-14  3.10914E-14  1.18829E-13  1.07178E-13
 -139.2000  3.44683E-14  2.93694E-14  2.01242E-14  1.85476E-14  2.10298E-14  5.97016E-14  5.22545E-14  7.62575E-15  3.94577E-15  1.70337E-14  2.84476E-15  2.33555E-15  3.37856E-14  3.30779E-14  1.27955E-13  1.14702E-13
 -138.4000  3.72591E-14  3.15602E-14  2.16666E-14  2.00513E-14  2.26919E-14  6.44097E-14  5.60417E-14  8.15604E-15  4.24038E-15  1.81926E-14  3.07323E-15  2.52489E-15  3.61871E-14  3.52057E-14  1.37856E-13  1.22808E-13
 -137.6000  4.02968E-14  3.39296E-14  2.33404E-14  2.16871E-14  2.44970E-14  6.95245E-14  6.01297E-14  8.72807E-15  4.55962E-15  1.94392E-14  3.32201E-15  2.73142E-15  3.87804E-14  3.74859E-14  1.48602E-13  1.31545E-13
 -136.8000  4.36051E-14  3.64936E-14  2.51580E-14  2.34674E-14  2.64586E-14  7.50840E-14  6.45445E-14  9.34553E-15  4.90575E-15  2.07812E-14  3.59306E-15  2.95683E-15  4.15823E-14  3.99309E-14  1.60272E-13  1.40969E-13
 -136.0000  4.72100E-14  3.92695E-14  2.71329E-14  2.54059E-14  2.85912E-14  8.11300E-14  6.93149E-14  1.00124E-14  5.28121E-15  2.22263E-14  3.88850E-15  3.20296E-15  4.46113E-14  4.25540E-14  1.72951E-13  1.51138E-13
 -135.2000  5.11401E-14  4.22765E-14  2.92797E-14  2.75177E-14  3.09108E-14  8.77082E-14  7.44720E-14  1.07329E-14  5.68871E-15  2.37833E-14  4.21069E-15  3.47185E-15  4.78875E-14  4.53698E-14  1.86736E-13  1.62118E-13
 -134.4000  5.54272E-14  4.55355E-14  3.16150E-14  2.98194E-14  3.34350E-14  9.48694E-14  8.00503E-14  1.15120E-14  6.13122E-15  2.54618E-14  4.56224E-15  3.76577E-15  5.14330E-14  4.83940E-14  2.01730E-13  1.73980E-13
 -133.6000  6.01061E-14  4.90697E-14  3.41565E-14  3.23292E-14  3.61834E-14  1.02669E-13  8.60871E-14  1.23549E-14  6.61200E-15  2.72721E-14  4.94598E-15  4.08719E-15  5.52722E-14  5.16439E-14  2.18047E-13  1.86801E-13
 -132.8000  6.52155E-14  5.29043E-14  3.69243E-14  3.50673E-14  3.91773E-14  1.11169E-13  9.26237E-14  1.32673E-14  7.13466E-15  2.92258E-14  5.36510E-15  4.43888E-15  5.94318E-14  5.51384E-14  2.35816E-13  2.00666E-13
 -132.0000  7.07984E-14  5.70672E-14  3.99403E-14  3.80561E-14  4.24403E-14  1.20437E-13  9.97053E-14  1.42557E-14  7.70315E-15  3.13355E-14  5.82307E-15  4.82390E-15  6.39413E-14  5.88981E-14  2.55176E-13  2.15671E-13
 -131.2000  7.69019E-14  6.15889E-14  4.32286E-14  4.13201E-14  4.59985E-14  1.30547E-13  1.07381E-13  1.53270E-14  8.32181E-15  3.36146E-14  6.32374E-15  5.24558E-15  6.88327E-14  6.29454E-14  2.76282E-13  2.31916E-13
 -130.4000  8.35786E-14  6.65032E-14  4.68160E-14  4.48863E-14  4.98805E-14  1.41583E-13  1.15706E-13  1.64887E-14  8.99543E-15  3.60782E-14  6.87134E-15  5.70765E-15  7.41413E-14  6.73048E-14  2.99303E-13  2.49514E-13
 -129.6000  9.08862E-14  7.18472E-14  5.07318E-14  4.87847E-14  5.41180E-14  1.53635E-13  1.24740E-13  1.77494E-14  9.72928E-15  3.87427E-14  7.47058E-15  6.21424E-15  7.99062E-14  7.20032E-14  3.24427E-13  2.68590E-13
 -128.8000  9.88892E-14  7.76618E-14  5.50090E-14  5.30486E-14  5.87461E-14  1.66804E-13  1.34548E-13  1.91182E-14  1.05292E-14  4.16262E-14  8.12663E-15  6.76989E-15  8.61701E-14  7.70699E-14  3.51863E-13  2.89279E-13
