 18986.000   41  1  1  5.6297589E-02 -2.6275056E+00  0.0000000E+00  1  1  1.8763667E+04  1.4369350E+03  0.0000000E+00  6.2864146E+00  2.0000000E+00  0.0000000E+00  = E_edge, Z, n_edge, j_edge, Abs_before_edge, VO_interstitial, E_cut, ninit, ninit1, Epsii, UnitCell_Volume, Surface_ref, f0_forward, natomsym_f, abs_u_iso
    Energy    <xanes>    
  18786.00  4.2791733E-20
  18786.80  4.5462672E-20
  18787.60  4.8330628E-20
  18788.40  5.1409514E-20
  18789.20  5.4714328E-20
  18790.00  5.8261488E-20
  18790.80  6.2067990E-20
  18791.60  6.6154603E-20
  18792.40  7.0543531E-20
  18793.20  7.5257661E-20
  18794.00  8.0322412E-20
  18794.80  8.5765339E-20
  18795.60  9.1616791E-20
  18796.40  9.7908709E-20
  18797.20  1.0467539E-19
  18798.00  1.1195565E-19
  18798.80  1.1978784E-19
  18799.60  1.2822188E-19
  18800.40  1.3730715E-19
  18801.20  1.4709752E-19
  18802.00  1.5765155E-19
  18802.80  1.6903269E-19
  18803.60  1.8131067E-19
  18804.40  1.9456128E-19
  18805.20  2.0886410E-19
  18806.00  2.2431279E-19
  18806.80  2.4099353E-19
  18807.60  2.5903447E-19
  18808.40  2.7854450E-19
  18809.20  2.9965353E-19
  18810.00  3.2250252E-19
  18810.80  3.4724576E-19
  18811.60  3.7405154E-19
  18812.40  4.0310013E-19
  18813.20  4.3459963E-19
  18814.00  4.6874640E-19
  18814.80  5.0581877E-19
  18815.60  5.4607452E-19
  18816.40  5.8980644E-19
  18817.20  6.3733811E-19
  18818.00  6.8902439E-19
  18818.80  7.4526002E-19
  18819.60  8.0645707E-19
  18820.40  8.7309459E-19
  18821.20  9.4564102E-19
  18822.00  1.0247525E-18
  18822.80  1.1110343E-18
  18823.60  1.2051836E-18
  18824.40  1.3079781E-18
  18825.20  1.4202591E-18
  18826.00  1.5429660E-18
  18826.80  1.6771052E-18
  18827.60  1.8237820E-18
  18828.40  1.9843374E-18
  18829.20  2.1602087E-18
  18830.00  2.3529256E-18
  18830.80  2.5642176E-18
  18831.60  2.7960057E-18
  18832.40  3.0504194E-18
  18833.20  3.3297763E-18
  18834.00  3.6366372E-18
  18834.80  3.9739190E-18
  18835.60  4.3450385E-18
  18836.40  4.7535527E-18
  18837.20  5.2034657E-18
  18838.00  5.6992851E-18
  18838.80  6.2460171E-18
  18839.60  6.8492021E-18
  18840.40  7.5148504E-18
  18841.20  8.2498580E-18
  18842.00  9.0624829E-18
  18842.80  9.9612955E-18
  18843.60  1.0955960E-17
  18844.40  1.2057492E-17
  18845.20  1.3278089E-17
  18846.00  1.4631247E-17
  18846.80  1.6131637E-17
  18847.60  1.7797303E-17
  18848.40  1.9647961E-17
  18849.20  2.1705346E-17
  18850.00  2.3993821E-17
  18850.80  2.6541133E-17
  18851.60  2.9378474E-17
  18852.40  3.2540154E-17
  18853.20  3.6063647E-17
  18854.00  3.9997669E-17
  18854.80  4.4391755E-17
  18855.60  4.9302726E-17
  18856.40  5.4795088E-17
  18857.20  6.0942276E-17
  18858.00  6.7825987E-17
  18858.80  7.5535292E-17
  18859.60  8.4183688E-17
  18860.40  9.3891655E-17
  18861.20  1.0479625E-16
  18862.00  1.1705302E-16
  18862.80  1.3084069E-16
  18863.60  1.4635980E-16
  18864.40  1.6382944E-16
  18865.20  1.8352952E-16
  18866.00  2.0575909E-16
  18866.80  2.3086081E-16
  18867.60  2.5922535E-16
  18868.40  2.9130513E-16
  18869.20  3.2760797E-16
  18870.00  3.6869349E-16
  18870.80  4.1528898E-16
  18871.60  4.6815632E-16
  18872.40  5.2819138E-16
  18873.20  5.9641729E-16
  18874.00  6.7401802E-16
  18874.80  7.6229143E-16
  18875.60  8.6286340E-16
  18876.40  9.7756918E-16
  18877.20  1.1084954E-15
  18878.00  1.2580613E-15
  18878.80  1.4290727E-15
  18879.60  1.6246625E-15
  18880.40  1.8486217E-15
  18881.20  2.1054626E-15
  18882.00  2.4002350E-15
  18882.80  2.7388427E-15
  18883.60  3.1281155E-15
  18884.40  3.5759557E-15
  18885.20  4.0916046E-15
  18886.00  4.6864145E-15
  18886.80  5.3730350E-15
  18887.60  6.1664349E-15
  18888.40  7.0841530E-15
  18889.20  8.1461130E-15
  18890.00  9.3768394E-15
  18890.80  1.0805064E-14
  18891.60  1.2464344E-14
  18892.40  1.4394138E-14
  18893.20  1.6640812E-14
  18894.00  1.9256995E-14
  18894.80  2.2310400E-14
  18895.60  2.5878281E-14
  18896.40  3.0052184E-14
  18897.20  3.4940697E-14
  18898.00  4.0668505E-14
  18898.80  4.7392169E-14
  18899.60  5.5298436E-14
  18900.40  6.4606194E-14
  18901.20  7.5576054E-14
  18902.00  8.8522588E-14
  18902.80  1.0381091E-13
  18903.60  1.2191503E-13
  18904.40  1.4337288E-13
  18905.20  1.6884688E-13
  18906.00  1.9912898E-13
  18906.80  2.3515446E-13
  18907.60  2.7812626E-13
  18908.40  3.2946089E-13
  18909.20  3.9088632E-13
  18910.00  4.6446985E-13
  18910.80  5.5275984E-13
  18911.60  6.5896359E-13
  18912.40  7.8693603E-13
  18913.20  9.4142066E-13
  18914.00  1.1280589E-12
  18914.80  1.3542476E-12
  18915.60  1.6289171E-12
  18916.40  1.9630884E-12
  18917.20  2.3703773E-12
  18918.00  2.8678515E-12
  18918.80  3.4772598E-12
  18919.60  4.2252049E-12
  18920.40  5.1455290E-12
  18921.20  6.2800214E-12
  18922.00  7.6831955E-12
  18922.80  9.4231506E-12
  18923.60  1.1586603E-11
  18924.40  1.4282492E-11
  18925.20  1.7653612E-11
  18926.00  2.1882786E-11
  18926.80  2.7204907E-11
  18927.60  3.3918630E-11
  18928.40  4.2424753E-11
  18929.20  5.3239037E-11
  18930.00  6.7032050E-11
  18930.80  8.4685810E-11
  18931.60  1.0737458E-10
  18932.40  1.3660659E-10
  18933.20  1.7424848E-10
  18934.00  2.2142050E-10
  18934.80  3.0005833E-10
  18935.60  3.8065461E-10
  18936.40  4.9441092E-10
  18937.20  6.4706970E-10
  18938.00  8.5241436E-10
  18938.80  1.1301893E-09
  18939.60  1.5087421E-09
  18940.40  2.0287852E-09
  18941.20  2.7492254E-09
  18942.00  3.7570124E-09
  18942.80  5.1813369E-09
  18943.60  7.2169196E-09
  18944.40  1.0163369E-08
  18945.20  1.4487614E-08
  18946.00  2.0933355E-08
  18946.80  3.0712733E-08
  18947.60  4.5851572E-08
  18948.40  6.9843075E-08
  18949.20  1.0891802E-07
  18950.00  1.7467926E-07
  18950.80  2.8992252E-07
  18951.60  5.0235427E-07
  18952.40  9.2074367E-07
  18953.20  1.8235616E-06
  18954.00  4.0506938E-06
  18954.80  1.0904894E-05
  18955.60  4.3828475E-05
  18956.40  8.3743149E-04
  18957.20  4.0633926E-04
  18958.00  8.1736198E-05
  18958.80  4.4043196E-05
  18959.60  3.3060966E-05
  18960.40  2.9630867E-05
  18961.20  2.9878297E-05
  18962.00  3.2980392E-05
  18962.80  3.9372955E-05
  18963.60  5.0674014E-05
  18964.40  7.0790052E-05
  18965.20  1.0929765E-04
  18966.00  1.9471092E-04
  18966.80  4.5459654E-04
  18967.60  2.6914391E-03
  18968.40  4.1463043E-03
  18969.20  5.8826478E-02
  18970.00  9.0629094E-03
  18970.80  1.2602584E-03
  18971.60  6.3371694E-04
  18972.40  4.3241468E-04
  18973.20  3.4641266E-04
  18974.00  3.0918069E-04
  18974.80  3.0027952E-04
  18975.60  3.1416686E-04
  18976.40  3.5392417E-04
  18977.20  4.3408653E-04
  18978.00  6.0779719E-04
  18978.80  5.5571795E-04
  18979.60  1.1221975E-03
  18980.40  2.5704429E-03
  18981.20  1.2341812E-02
  18982.00  4.7712122E-02
  18982.80  1.5727491E-02
  18983.60  4.1054280E-02
  18984.00  1.8298932E-01
  18984.80  6.3682312E-03
  18985.60  2.5405639E-03
  18986.40  2.4562111E-03
  18987.20  2.3992263E-03
  18988.00  2.2951664E-03
  18988.80  1.8241044E-03
  18989.60  1.6887891E-03
  18990.40  1.5950952E-03
  18991.20  1.5948842E-03
  18992.00  4.4006071E-03
  18992.80  6.2149090E-03
  18993.60  3.6915222E-03
  18994.40  5.3133598E-03
  18995.20  1.5039030E-02
  18996.00  8.6797553E-03
  18996.80  5.3294349E-03
  18997.60  3.9675800E-03
  18998.40  3.8805545E-03
  18999.20  4.6342887E-03
  19000.00  6.5209872E-03
  19000.80  9.8621744E-03
  19001.60  1.4474027E-02
  19002.40  1.9032548E-02
  19003.20  2.2307756E-02
  19004.00  2.3864923E-02
  19004.80  2.4232857E-02
  19005.60  2.4230787E-02
  19006.40  2.4288040E-02
  19007.20  2.4499610E-02
  19008.00  2.4808521E-02
  19008.80  2.5201538E-02
  19009.60  2.5619805E-02
  19010.40  2.6037630E-02
  19011.20  2.6430250E-02
  19012.00  2.6777339E-02
  19012.80  2.7059589E-02
  19013.60  2.7263498E-02
  19014.40  2.7378598E-02
  19015.20  2.7569415E-02
  19016.00  2.7564858E-02
  19016.80  2.7542557E-02
  19017.60  2.7650077E-02
  19018.40  2.7922485E-02
  19019.20  2.8432481E-02
  19020.00  2.9234776E-02
  19020.80  3.0385011E-02
  19021.60  3.2038243E-02
  19022.40  3.4331097E-02
  19023.20  3.4852865E-02
  19024.00  3.0211231E-02
  19024.80  2.5548072E-02
  19025.60  2.3115544E-02
  19026.40  2.1931075E-02
  19027.20  2.1323240E-02
  19028.00  2.1010533E-02
  19028.80  2.0841368E-02
  19029.60  2.0760512E-02
  19030.40  2.0737323E-02
  19031.20  2.0761571E-02
  19032.00  2.0835782E-02
  19032.80  2.0968556E-02
  19033.60  2.1164013E-02
  19034.40  2.1417481E-02
  19035.20  2.1706520E-02
  19036.00  2.1985279E-02
  19036.80  2.2129683E-02
  19037.60  2.2190713E-02
  19038.40  2.2067911E-02
  19039.20  2.1777385E-02
  19040.00  2.1384634E-02
  19040.80  2.0963387E-02
  19041.60  2.0563304E-02
  19042.40  2.0207732E-02
  19043.20  1.9902480E-02
  19044.00  1.9646056E-02
  19044.80  1.9434132E-02
  19045.60  1.9264911E-02
  19046.40  1.9133425E-02
  19047.20  1.9043340E-02
  19048.00  1.8990100E-02
  19048.80  1.8971540E-02
  19049.60  1.8985394E-02
  19050.40  1.9028590E-02
  19051.20  1.9099609E-02
  19052.00  1.9195732E-02
  19052.80  1.9314651E-02
  19053.60  1.9452777E-02
  19054.40  1.9608307E-02
  19055.20  1.9779481E-02
  19056.00  1.9962446E-02
  19056.80  2.0159297E-02
  19057.60  2.0369100E-02
  19058.40  2.0593687E-02
  19059.20  2.0834903E-02
  19060.00  2.1095463E-02
  19060.80  2.1377857E-02
  19061.60  2.1688214E-02
  19062.40  2.2031111E-02
  19063.20  2.2410322E-02
  19064.00  2.2827400E-02
  19064.80  2.3278465E-02
  19065.60  2.3755729E-02
  19066.40  2.4241879E-02
  19067.20  2.4702785E-02
  19068.00  2.5125886E-02
  19068.80  2.5477268E-02
  19069.60  2.5740997E-02
  19070.40  2.5911869E-02
  19071.20  2.5995767E-02
  19072.00  2.6005433E-02
  19072.80  2.5955025E-02
  19073.60  2.5861121E-02
  19074.40  2.5736250E-02
  19075.20  2.5590809E-02
  19076.00  2.5432599E-02
  19076.80  2.5267074E-02
  19077.60  2.5099175E-02
  19078.40  2.4933815E-02
  19079.20  2.4772651E-02
  19080.00  2.4618690E-02
  19080.80  2.4473760E-02
  19081.60  2.4338361E-02
  19082.40  2.4214447E-02
  19083.20  2.4103238E-02
  19084.00  2.4005575E-02
  19084.80  2.3921586E-02
  19085.60  2.3851149E-02
  19086.40  2.3793367E-02
  19087.20  2.3748820E-02
  19088.00  2.3716692E-02
  19088.80  2.3696101E-02
  19089.60  2.3685924E-02
  19090.40  2.3687821E-02
  19091.20  2.3693971E-02
  19092.00  2.3706102E-02
  19092.80  2.3722866E-02
  19093.60  2.3742790E-02
  19094.40  2.3764836E-02
  19095.20  2.3787757E-02
  19096.00  2.3810166E-02
  19096.80  2.3831236E-02
  19097.60  2.3850563E-02
  19098.40  2.3867836E-02
  19099.20  2.3882620E-02
  19100.00  2.3894487E-02
  19100.80  2.3902560E-02
  19101.60  2.3907258E-02
  19102.40  2.3904428E-02
  19103.20  2.3901301E-02
  19104.00  2.3893984E-02
  19104.80  2.3882509E-02
  19105.60  2.3866340E-02
  19106.40  2.3846020E-02
  19107.20  2.3821893E-02
  19108.00  2.3794020E-02
  19108.80  2.3762888E-02
  19109.60  2.3728953E-02
  19110.40  2.3692327E-02
  19111.20  2.3653659E-02
  19112.00  2.3613583E-02
  19112.80  2.3572411E-02
  19113.60  2.3530393E-02
  19114.40  2.3487909E-02
  19115.20  2.3445029E-02
  19116.00  2.3400091E-02
  19116.80  2.3357085E-02
  19117.60  2.3314570E-02
  19118.40  2.3272700E-02
  19119.20  2.3231670E-02
  19120.00  2.3191403E-02
  19120.80  2.3151942E-02
  19121.60  2.3113768E-02
  19122.40  2.3077029E-02
  19123.20  2.3041832E-02
  19124.00  2.3008376E-02
  19124.80  2.2976811E-02
  19125.60  2.2947061E-02
  19126.40  2.2919530E-02
  19127.20  2.2894257E-02
  19128.00  2.2871560E-02
  19128.80  2.2851583E-02
  19129.60  2.2835031E-02
  19130.40  2.2820561E-02
  19131.20  2.2809326E-02
  19132.00  2.2801499E-02
  19132.80  2.2797286E-02
  19133.60  2.2796766E-02
  19134.40  2.2800000E-02
  19135.20  2.2807161E-02
  19136.00  2.2818513E-02
  19136.80  2.2834181E-02
  19137.60  2.2854250E-02
  19138.40  2.2878765E-02
  19139.20  2.2907623E-02
  19140.00  2.2940803E-02
  19140.80  2.2978252E-02
  19141.60  2.3019723E-02
  19142.40  2.3065007E-02
  19143.20  2.3113968E-02
  19144.00  2.3163088E-02
  19144.80  2.3219211E-02
  19145.60  2.3278199E-02
  19146.40  2.3339801E-02
  19147.20  2.3403665E-02
  19148.00  2.3469357E-02
  19148.80  2.3536635E-02
  19149.60  2.3605088E-02
  19150.40  2.3674318E-02
  19151.20  2.3744170E-02
  19152.00  2.3814330E-02
  19152.80  2.3884565E-02
  19153.60  2.3954679E-02
  19154.40  2.4024383E-02
  19155.20  2.4093436E-02
  19156.00  2.4161592E-02
  19156.80  2.4228613E-02
  19157.60  2.4294237E-02
  19158.40  2.4358195E-02
  19159.20  2.4418509E-02
  19160.00  2.4478631E-02
  19160.80  2.4536653E-02
  19161.60  2.4592330E-02
  19162.40  2.4645520E-02
  19163.20  2.4695973E-02
  19164.00  2.4743538E-02
  19164.80  2.4788100E-02
  19165.60  2.4829502E-02
  19166.40  2.4867599E-02
  19167.20  2.4902273E-02
  19168.00  2.4933343E-02
  19168.80  2.4960804E-02
  19169.60  2.4984630E-02
  19170.40  2.5004772E-02
  19171.20  2.5021123E-02
  19172.00  2.5033760E-02
  19172.80  2.5042567E-02
  19173.60  2.5047617E-02
  19174.40  2.5034403E-02
  19175.20  2.5030916E-02
  19176.00  2.5023915E-02
  19176.80  2.5013529E-02
  19177.60  2.4999657E-02
  19178.40  2.4982658E-02
  19179.20  2.4962702E-02
  19180.00  2.4939901E-02
  19180.80  2.4914487E-02
  19181.60  2.4886581E-02
  19182.40  2.4856507E-02
  19183.20  2.4824358E-02
  19184.00  2.4790378E-02
  19184.80  2.4754741E-02
  19185.60  2.4717657E-02
  19186.40  2.4679356E-02
  19187.20  2.4639877E-02
  19188.00  2.4599507E-02
  19188.80  2.4558544E-02
  19189.60  2.4517249E-02
  19190.40  2.4475703E-02
  19191.20  2.4431876E-02
  19192.00  2.4390650E-02
  19192.80  2.4349851E-02
  19193.60  2.4309627E-02
  19194.40  2.4270149E-02
  19195.20  2.4231602E-02
  19196.00  2.4194171E-02
  19196.80  2.4158092E-02
  19197.60  2.4123371E-02
  19198.40  2.4090156E-02
  19199.20  2.4058637E-02
  19200.00  2.4028926E-02
  19200.80  2.4001133E-02
  19201.60  2.3975360E-02
  19202.40  2.3951661E-02
  19203.20  2.3930127E-02
  19204.00  2.3910771E-02
  19204.80  2.3893549E-02
  19205.60  2.3878440E-02
  19206.40  2.3865394E-02
  19207.20  2.3854337E-02
  19208.00  2.3858484E-02
  19208.80  2.3850447E-02
  19209.60  2.3843592E-02
  19210.40  2.3837847E-02
  19211.20  2.3833015E-02
  19212.00  2.3828883E-02
  19212.80  2.3825260E-02
  19213.60  2.3821951E-02
  19214.40  2.3818785E-02
  19215.20  2.3815597E-02
  19216.00  2.3812191E-02
  19216.80  2.3808508E-02
  19217.60  2.3804378E-02
  19218.40  2.3799704E-02
  19219.20  2.3794382E-02
  19220.00  2.3788359E-02
  19220.80  2.3781656E-02
  19221.60  2.3774280E-02
  19222.40  2.3766288E-02
  19223.20  2.3757746E-02
  19224.00  2.3748654E-02
  19224.80  2.3739058E-02
  19225.60  2.3726437E-02
  19226.40  2.3715815E-02
  19227.20  2.3704827E-02
  19228.00  2.3693471E-02
  19228.80  2.3681785E-02
  19229.60  2.3669720E-02
  19230.40  2.3657201E-02
  19231.20  2.3644074E-02
  19232.00  2.3630305E-02
  19232.80  2.3615806E-02
  19233.60  2.3600394E-02
  19234.40  2.3583982E-02
  19235.20  2.3566403E-02
  19236.00  2.3547517E-02
  19236.80  2.3527215E-02
  19237.60  2.3505366E-02
  19238.40  2.3481896E-02
  19239.20  2.3456775E-02
  19240.00  2.3430036E-02
  19240.80  2.3401656E-02
  19241.60  2.3371696E-02
  19242.40  2.3340239E-02
  19243.20  2.3307415E-02
  19244.00  2.3255981E-02
  19244.80  2.3221604E-02
  19245.60  2.3186447E-02
  19246.40  2.3150657E-02
  19247.20  2.3114397E-02
  19248.00  2.3077821E-02
  19248.80  2.3041065E-02
  19249.60  2.3004273E-02
  19250.40  2.2967549E-02
  19251.20  2.2930994E-02
  19252.00  2.2894713E-02
  19252.80  2.2858808E-02
  19253.60  2.2823384E-02
  19254.40  2.2788516E-02
  19255.20  2.2754268E-02
  19256.00  2.2720869E-02
  19256.80  2.2688427E-02
  19257.60  2.2657103E-02
  19258.40  2.2627054E-02
  19259.20  2.2598426E-02
  19260.00  2.2571395E-02
  19260.80  2.2546180E-02
  19261.60  2.2522987E-02
  19262.40  2.2502036E-02
  19263.20  2.2481385E-02
  19264.00  2.2465510E-02
  19264.80  2.2452513E-02
  19265.60  2.2442555E-02
  19266.40  2.2435694E-02
  19267.20  2.2431951E-02
  19268.00  2.2431294E-02
  19268.80  2.2433566E-02
  19269.60  2.2438537E-02
  19270.40  2.2445930E-02
  19271.20  2.2455377E-02
  19272.00  2.2466484E-02
  19272.80  2.2478740E-02
  19273.60  2.2491652E-02
  19274.40  2.2504744E-02
  19275.20  2.2517519E-02
  19276.00  2.2529403E-02
  19276.80  2.2539850E-02
  19277.60  2.2548299E-02
  19278.40  2.2554139E-02
  19279.20  2.2556688E-02
  19280.00  2.2555220E-02
  19280.80  2.2548982E-02
  19281.60  2.2537219E-02
  19282.40  2.2519207E-02
  19283.20  2.2418692E-02
  19284.00  2.2389008E-02
  19284.80  2.2351844E-02
  19285.60  2.2307136E-02
  19286.00  2.2282060E-02
