    Energy      s          Int(s)         px           py           pz           p          Int(p)       total      Int(total) 
 -200.0000  3.56542E-09  2.09643E-10  7.07535E-09  1.20908E-10  2.47905E-10  7.44416E-09  4.37709E-10  1.10096E-08  6.47351E-10
 -199.2000  3.67349E-09  4.25640E-10  7.27510E-09  1.24558E-10  2.54898E-10  7.65455E-09  8.87788E-10  1.13280E-08  1.31343E-09
 -198.4000  3.78504E-09  6.48196E-10  7.48083E-09  1.28325E-10  2.62103E-10  7.87126E-09  1.35061E-09  1.16563E-08  1.99881E-09
 -197.6000  3.90020E-09  8.77523E-10  7.69274E-09  1.32216E-10  2.69530E-10  8.09449E-09  1.82656E-09  1.19947E-08  2.70408E-09
 -196.8000  4.01908E-09  1.11384E-09  7.91103E-09  1.36234E-10  2.77184E-10  8.32445E-09  2.31602E-09  1.23435E-08  3.42987E-09
 -196.0000  4.14183E-09  1.35738E-09  8.13590E-09  1.40383E-10  2.85074E-10  8.56136E-09  2.81942E-09  1.27032E-08  4.17680E-09
 -195.2000  4.26858E-09  1.60836E-09  8.36758E-09  1.44668E-10  2.93207E-10  8.80545E-09  3.33717E-09  1.30740E-08  4.94554E-09
 -194.4000  4.39947E-09  1.86705E-09  8.60628E-09  1.49094E-10  3.01592E-10  9.05697E-09  3.86971E-09  1.34564E-08  5.73676E-09
 -193.6000  4.53465E-09  2.13368E-09  8.85224E-09  1.53667E-10  3.10238E-10  9.31614E-09  4.41749E-09  1.38508E-08  6.55117E-09
 -192.8000  4.67426E-09  2.40852E-09  9.10569E-09  1.58391E-10  3.19152E-10  9.58324E-09  4.98098E-09  1.42575E-08  7.38950E-09
 -192.0000  4.81847E-09  2.69184E-09  9.36690E-09  1.63271E-10  3.28345E-10  9.85851E-09  5.56065E-09  1.46770E-08  8.25249E-09
 -191.2000  4.96745E-09  2.98392E-09  9.63610E-09  1.68314E-10  3.37826E-10  1.01422E-08  6.15700E-09  1.51097E-08  9.14092E-09
 -190.4000  5.12136E-09  3.28505E-09  9.91357E-09  1.73525E-10  3.47604E-10  1.04347E-08  6.77055E-09  1.55561E-08  1.00556E-08
 -189.6000  5.28038E-09  3.59553E-09  1.01996E-08  1.78910E-10  3.57691E-10  1.07362E-08  7.40182E-09  1.60166E-08  1.09974E-08
 -188.8000  5.44470E-09  3.91568E-09  1.04944E-08  1.84477E-10  3.68096E-10  1.10470E-08  8.05138E-09  1.64917E-08  1.19671E-08
 -188.0000  5.61451E-09  4.24580E-09  1.07984E-08  1.90230E-10  3.78831E-10  1.13675E-08  8.71977E-09  1.69820E-08  1.29656E-08
 -187.2000  5.79001E-09  4.58625E-09  1.11118E-08  1.96178E-10  3.89907E-10  1.16979E-08  9.40759E-09  1.74879E-08  1.39938E-08
 -186.4000  5.97140E-09  4.93736E-09  1.14350E-08  2.02327E-10  4.01336E-10  1.20386E-08  1.01155E-08  1.80101E-08  1.50528E-08
 -185.6000  6.15892E-09  5.29950E-09  1.17682E-08  2.08685E-10  4.13131E-10  1.23901E-08  1.08440E-08  1.85490E-08  1.61435E-08
 -184.8000  6.35277E-09  5.67304E-09  1.21119E-08  2.15259E-10  4.25304E-10  1.27525E-08  1.15938E-08  1.91053E-08  1.72668E-08
 -184.0000  6.55319E-09  6.05836E-09  1.24664E-08  2.22058E-10  4.37868E-10  1.31263E-08  1.23656E-08  1.96795E-08  1.84240E-08
 -183.2000  6.76043E-09  6.45586E-09  1.28320E-08  2.29090E-10  4.50839E-10  1.35120E-08  1.31601E-08  2.02724E-08  1.96160E-08
 -182.4000  6.97474E-09  6.86597E-09  1.32092E-08  2.36363E-10  4.64229E-10  1.39098E-08  1.39780E-08  2.08845E-08  2.08440E-08
 -181.6000  7.19639E-09  7.28911E-09  1.35983E-08  2.43887E-10  4.78054E-10  1.43203E-08  1.48200E-08  2.15167E-08  2.21091E-08
 -180.8000  7.42565E-09  7.72573E-09  1.39998E-08  2.51672E-10  4.92330E-10  1.47438E-08  1.56869E-08  2.21694E-08  2.34127E-08
 -180.0000  7.66280E-09  8.17629E-09  1.44140E-08  2.59726E-10  5.07072E-10  1.51808E-08  1.65795E-08  2.28436E-08  2.47558E-08
 -179.2000  7.90815E-09  8.64128E-09  1.48415E-08  2.68060E-10  5.22298E-10  1.56319E-08  1.74987E-08  2.35400E-08  2.61400E-08
 -178.4000  8.16200E-09  9.12120E-09  1.52827E-08  2.76685E-10  5.38025E-10  1.60974E-08  1.84452E-08  2.42594E-08  2.75664E-08
 -177.6000  8.42468E-09  9.61656E-09  1.57380E-08  2.85612E-10  5.54271E-10  1.65779E-08  1.94200E-08  2.50026E-08  2.90365E-08
 -176.8000  8.69653E-09  1.01279E-08  1.62080E-08  2.94852E-10  5.71055E-10  1.70739E-08  2.04239E-08  2.57705E-08  3.05518E-08
 -176.0000  8.97789E-09  1.06558E-08  1.66932E-08  3.04418E-10  5.88397E-10  1.75860E-08  2.14579E-08  2.65639E-08  3.21137E-08
 -175.2000  9.26914E-09  1.12008E-08  1.71941E-08  3.14322E-10  6.06317E-10  1.81148E-08  2.25231E-08  2.73839E-08  3.37239E-08
 -174.4000  9.57065E-09  1.17636E-08  1.77114E-08  3.24577E-10  6.24837E-10  1.86608E-08  2.36203E-08  2.82314E-08  3.53838E-08
 -173.6000  9.88283E-09  1.23447E-08  1.82454E-08  3.35196E-10  6.43979E-10  1.92246E-08  2.47507E-08  2.91074E-08  3.70953E-08
 -172.8000  1.02061E-08  1.29448E-08  1.87970E-08  3.46195E-10  6.63765E-10  1.98069E-08  2.59153E-08  3.00130E-08  3.88601E-08
 -172.0000  1.05408E-08  1.35646E-08  1.93666E-08  3.57587E-10  6.84220E-10  2.04084E-08  2.71153E-08  3.09493E-08  4.06798E-08
 -171.2000  1.08875E-08  1.42047E-08  1.99550E-08  3.69389E-10  7.05368E-10  2.10298E-08  2.83518E-08  3.19173E-08  4.25566E-08
 -170.4000  1.12467E-08  1.48660E-08  2.05629E-08  3.81615E-10  7.27237E-10  2.16717E-08  2.96261E-08  3.29184E-08  4.44921E-08
 -169.6000  1.16188E-08  1.55492E-08  2.11909E-08  3.94284E-10  7.49852E-10  2.23350E-08  3.09394E-08  3.39538E-08  4.64886E-08
 -168.8000  1.20043E-08  1.62550E-08  2.18397E-08  4.07413E-10  7.73243E-10  2.30204E-08  3.22929E-08  3.50247E-08  4.85480E-08
 -168.0000  1.24037E-08  1.69844E-08  2.25102E-08  4.21020E-10  7.97439E-10  2.37287E-08  3.36882E-08  3.61324E-08  5.06725E-08
 -167.2000  1.28177E-08  1.77380E-08  2.32032E-08  4.35123E-10  8.22469E-10  2.44608E-08  3.51264E-08  3.72785E-08  5.28645E-08
 -166.4000  1.32469E-08  1.85169E-08  2.39194E-08  4.49744E-10  8.48366E-10  2.52175E-08  3.66092E-08  3.84643E-08  5.51261E-08
 -165.6000  1.36917E-08  1.93220E-08  2.46597E-08  4.64902E-10  8.75164E-10  2.59997E-08  3.81380E-08  3.96914E-08  5.74599E-08
 -164.8000  1.41529E-08  2.01542E-08  2.54250E-08  4.80620E-10  9.02898E-10  2.68085E-08  3.97143E-08  4.09614E-08  5.98684E-08
 -164.0000  1.46311E-08  2.10145E-08  2.62163E-08  4.96921E-10  9.31603E-10  2.76448E-08  4.13397E-08  4.22760E-08  6.23542E-08
 -163.2000  1.51271E-08  2.19039E-08  2.70345E-08  5.13827E-10  9.61317E-10  2.85097E-08  4.30161E-08  4.36367E-08  6.49200E-08
 -162.4000  1.56414E-08  2.28236E-08  2.78807E-08  5.31365E-10  9.92080E-10  2.94042E-08  4.47450E-08  4.50456E-08  6.75686E-08
 -161.6000  1.61750E-08  2.37747E-08  2.87559E-08  5.49558E-10  1.02393E-09  3.03293E-08  4.65284E-08  4.65044E-08  7.03030E-08
 -160.8000  1.67286E-08  2.47583E-08  2.96611E-08  5.68436E-10  1.05692E-09  3.12865E-08  4.83680E-08  4.80150E-08  7.31263E-08
 -160.0000  1.73030E-08  2.57757E-08  3.05976E-08  5.88026E-10  1.09108E-09  3.22767E-08  5.02658E-08  4.95797E-08  7.60415E-08
 -159.2000  1.78991E-08  2.68281E-08  3.15665E-08  6.08357E-10  1.12647E-09  3.33013E-08  5.22239E-08  5.12004E-08  7.90520E-08
 -158.4000  1.85178E-08  2.79170E-08  3.25691E-08  6.29461E-10  1.16312E-09  3.43617E-08  5.42443E-08  5.28795E-08  8.21613E-08
 -157.6000  1.91601E-08  2.90436E-08  3.36067E-08  6.51370E-10  1.20111E-09  3.54592E-08  5.63293E-08  5.46192E-08  8.53728E-08
 -156.8000  1.98269E-08  3.02094E-08  3.46806E-08  6.74117E-10  1.24047E-09  3.65951E-08  5.84810E-08  5.64220E-08  8.86904E-08
 -156.0000  2.05193E-08  3.14159E-08  3.57922E-08  6.97739E-10  1.28126E-09  3.77712E-08  6.07019E-08  5.82905E-08  9.21178E-08
 -155.2000  2.12384E-08  3.26647E-08  3.69430E-08  7.22272E-10  1.32354E-09  3.89888E-08  6.29944E-08  6.02272E-08  9.56591E-08
 -154.4000  2.19853E-08  3.39574E-08  3.81346E-08  7.47755E-10  1.36737E-09  4.02497E-08  6.53611E-08  6.22350E-08  9.93185E-08
 -153.6000  2.27613E-08  3.52957E-08  3.93685E-08  7.74229E-10  1.41282E-09  4.15555E-08  6.78045E-08  6.43168E-08  1.03100E-07
 -152.8000  2.35675E-08  3.66815E-08  4.06464E-08  8.01737E-10  1.45995E-09  4.29081E-08  7.03274E-08  6.64756E-08  1.07009E-07
 -152.0000  2.44053E-08  3.81165E-08  4.19701E-08  8.30322E-10  1.50883E-09  4.43092E-08  7.29328E-08  6.87145E-08  1.11049E-07
 -151.2000  2.52761E-08  3.96027E-08  4.33413E-08  8.60031E-10  1.55953E-09  4.57608E-08  7.56235E-08  7.10369E-08  1.15226E-07
 -150.4000  2.61813E-08  4.11421E-08  4.47620E-08  8.90913E-10  1.61213E-09  4.72650E-08  7.84026E-08  7.34463E-08  1.19545E-07
 -149.6000  2.71225E-08  4.27369E-08  4.62342E-08  9.23021E-10  1.66671E-09  4.88239E-08  8.12734E-08  7.59463E-08  1.24010E-07
 -148.8000  2.81011E-08  4.43892E-08  4.77599E-08  9.56407E-10  1.72335E-09  5.04396E-08  8.42392E-08  7.85408E-08  1.28628E-07
 -148.0000  2.91190E-08  4.61014E-08  4.93413E-08  9.91127E-10  1.78213E-09  5.21146E-08  8.73035E-08  8.12336E-08  1.33405E-07
 -147.2000  3.01779E-08  4.78758E-08  5.09807E-08  1.02724E-09  1.84316E-09  5.38511E-08  9.04698E-08  8.40290E-08  1.38346E-07
 -146.4000  3.12794E-08  4.97150E-08  5.26804E-08  1.06481E-09  1.90651E-09  5.56517E-08  9.37421E-08  8.69312E-08  1.43457E-07
 -145.6000  3.24257E-08  5.16216E-08  5.44429E-08  1.10390E-09  1.97231E-09  5.75191E-08  9.71242E-08  8.99449E-08  1.48746E-07
 -144.8000  3.36188E-08  5.35983E-08  5.62709E-08  1.14458E-09  2.04063E-09  5.94561E-08  1.00620E-07  9.30749E-08  1.54218E-07
 -144.0000  3.48607E-08  5.56481E-08  5.81669E-08  1.18692E-09  2.11161E-09  6.14655E-08  1.04234E-07  9.63262E-08  1.59882E-07
 -143.2000  3.61538E-08  5.77739E-08  6.01339E-08  1.23100E-09  2.18535E-09  6.35503E-08  1.07971E-07  9.97040E-08  1.65745E-07
 -142.4000  3.75003E-08  5.99789E-08  6.21749E-08  1.27689E-09  2.26198E-09  6.57137E-08  1.11835E-07  1.03214E-07  1.71814E-07
 -141.6000  3.89027E-08  6.22663E-08  6.42927E-08  1.32468E-09  2.34161E-09  6.79590E-08  1.15831E-07  1.06862E-07  1.78097E-07
 -140.8000  4.03636E-08  6.46397E-08  6.64909E-08  1.37445E-09  2.42438E-09  7.02897E-08  1.19964E-07  1.10653E-07  1.84603E-07
 -140.0000  4.18859E-08  6.71025E-08  6.87727E-08  1.42630E-09  2.51043E-09  7.27094E-08  1.24239E-07  1.14595E-07  1.91341E-07
 -139.2000  4.34723E-08  6.96586E-08  7.11417E-08  1.48032E-09  2.59991E-09  7.52220E-08  1.28662E-07  1.18694E-07  1.98321E-07
 -138.4000  4.51259E-08  7.23120E-08  7.36018E-08  1.53661E-09  2.69297E-09  7.78313E-08  1.33238E-07  1.22957E-07  2.05550E-07
 -137.6000  4.68499E-08  7.50667E-08  7.61566E-08  1.59529E-09  2.78977E-09  8.05417E-08  1.37974E-07  1.27392E-07  2.13041E-07
 -136.8000  4.86476E-08  7.79271E-08  7.88104E-08  1.65646E-09  2.89047E-09  8.33573E-08  1.42875E-07  1.32005E-07  2.20803E-07
 -136.0000  5.05226E-08  8.08978E-08  8.15674E-08  1.72023E-09  2.99526E-09  8.62829E-08  1.47949E-07  1.36805E-07  2.28847E-07
 -135.2000  5.24786E-08  8.39835E-08  8.44322E-08  1.78674E-09  3.10432E-09  8.93233E-08  1.53201E-07  1.41802E-07  2.37184E-07
 -134.4000  5.45196E-08  8.71892E-08  8.74095E-08  1.85612E-09  3.21785E-09  9.24835E-08  1.58639E-07  1.47003E-07  2.45828E-07
 -133.6000  5.66496E-08  9.05201E-08  9.05042E-08  1.92849E-09  3.33605E-09  9.57688E-08  1.64270E-07  1.52418E-07  2.54790E-07
 -132.8000  5.88732E-08  9.39818E-08  9.37216E-08  2.00401E-09  3.45914E-09  9.91848E-08  1.70102E-07  1.58058E-07  2.64084E-07
 -132.0000  6.11947E-08  9.75800E-08  9.70669E-08  2.08283E-09  3.58735E-09  1.02737E-07  1.76143E-07  1.63932E-07  2.73723E-07
 -131.2000  6.36192E-08  1.01321E-07  1.00546E-07  2.16511E-09  3.72090E-09  1.06432E-07  1.82401E-07  1.70051E-07  2.83721E-07
 -130.4000  6.61518E-08  1.05210E-07  1.04165E-07  2.25102E-09  3.86007E-09  1.10276E-07  1.88885E-07  1.76428E-07  2.94095E-07
 -129.6000  6.87979E-08  1.09256E-07  1.07930E-07  2.34073E-09  4.00511E-09  1.14276E-07  1.95604E-07  1.83074E-07  3.04860E-07
 -128.8000  7.15634E-08  1.13463E-07  1.11848E-07  2.43444E-09  4.15630E-09  1.18439E-07  2.02568E-07  1.90002E-07  3.16032E-07
 -128.0000  7.44540E-08  1.17841E-07  1.15926E-07  2.53234E-09  4.31393E-09  1.22772E-07  2.09787E-07  1.97226E-07  3.27628E-07
 -127.2000  7.74763E-08  1.22397E-07  1.20171E-07  2.63465E-09  4.47832E-09  1.27284E-07  2.17271E-07  2.04760E-07  3.39668E-07
 -126.4000  8.06372E-08  1.27138E-07  1.24590E-07  2.74158E-09  4.64978E-09  1.31982E-07  2.25032E-07  2.12619E-07  3.52170E-07
 -125.6000  8.39437E-08  1.32074E-07  1.29193E-07  2.85336E-09  4.82867E-09  1.36875E-07  2.33080E-07  2.20819E-07  3.65154E-07
 -124.8000  8.74035E-08  1.37213E-07  1.33987E-07  2.97026E-09  5.01535E-09  1.41972E-07  2.41428E-07  2.29376E-07  3.78641E-07
 -124.0000  9.10245E-08  1.42565E-07  1.38981E-07  3.09252E-09  5.21020E-09  1.47284E-07  2.50088E-07  2.38308E-07  3.92653E-07
 -123.2000  9.48151E-08  1.48140E-07  1.44185E-07  3.22042E-09  5.41361E-09  1.52819E-07  2.59073E-07  2.47634E-07  4.07214E-07
 -122.4000  9.87845E-08  1.53949E-07  1.49609E-07  3.35425E-09  5.62603E-09  1.58589E-07  2.68398E-07  2.57374E-07  4.22347E-07
 -121.6000  1.02942E-07  1.60002E-07  1.55263E-07  3.49433E-09  5.84789E-09  1.64606E-07  2.78077E-07  2.67548E-07  4.38079E-07
 -120.8000  1.07298E-07  1.66311E-07  1.61159E-07  3.64097E-09  6.07968E-09  1.70880E-07  2.88124E-07  2.78178E-07  4.54435E-07
 -120.0000  1.11864E-07  1.72888E-07  1.67308E-07  3.79453E-09  6.32190E-09  1.77424E-07  2.98557E-07  2.89288E-07  4.71445E-07
 -119.2000  1.16649E-07  1.79747E-07  1.73722E-07  3.95536E-09  6.57506E-09  1.84252E-07  3.09391E-07  3.00901E-07  4.89138E-07
 -118.4000  1.21667E-07  1.86901E-07  1.80413E-07  4.12386E-09  6.83974E-09  1.91377E-07  3.20643E-07  3.13044E-07  5.07544E-07
 -117.6000  1.26931E-07  1.94364E-07  1.87397E-07  4.30043E-09  7.11653E-09  1.98814E-07  3.32333E-07  3.25745E-07  5.26698E-07
 -116.8000  1.32453E-07  2.02152E-07  1.94687E-07  4.48551E-09  7.40605E-09  2.06579E-07  3.44480E-07  3.39032E-07  5.46632E-07
 -116.0000  1.38249E-07  2.10281E-07  2.02299E-07  4.67956E-09  7.70898E-09  2.14688E-07  3.57103E-07  3.52937E-07  5.67385E-07
 -115.2000  1.44334E-07  2.18768E-07  2.10248E-07  4.88307E-09  8.02602E-09  2.23157E-07  3.70225E-07  3.67492E-07  5.88993E-07
 -114.4000  1.50723E-07  2.27630E-07  2.18552E-07  5.09655E-09  8.35788E-09  2.32006E-07  3.83867E-07  3.82729E-07  6.11497E-07
 -113.6000  1.57436E-07  2.36887E-07  2.27227E-07  5.32055E-09  8.70538E-09  2.41253E-07  3.98052E-07  3.98689E-07  6.34939E-07
 -112.8000  1.64489E-07  2.46559E-07  2.36295E-07  5.55567E-09  9.06936E-09  2.50920E-07  4.12806E-07  4.15409E-07  6.59365E-07
 -112.0000  1.71903E-07  2.56667E-07  2.45773E-07  5.80252E-09  9.45070E-09  2.61027E-07  4.28154E-07  4.32930E-07  6.84821E-07
 -111.2000  1.79699E-07  2.67233E-07  2.55685E-07  6.06176E-09  9.85034E-09  2.71597E-07  4.44123E-07  4.51296E-07  7.11356E-07
 -110.4000  1.87898E-07  2.78281E-07  2.66051E-07  6.33406E-09  1.02692E-08  2.82654E-07  4.60743E-07  4.70552E-07  7.39024E-07
 -109.6000  1.96526E-07  2.89837E-07  2.76895E-07  6.62021E-09  1.07085E-08  2.94224E-07  4.78043E-07  4.90750E-07  7.67880E-07
 -108.8000  2.05607E-07  3.01926E-07  2.88244E-07  6.92099E-09  1.11692E-08  3.06334E-07  4.96055E-07  5.11941E-07  7.97982E-07
 -108.0000  2.15169E-07  3.14578E-07  3.00123E-07  7.23723E-09  1.16527E-08  3.19013E-07  5.14813E-07  5.34182E-07  8.29391E-07
 -107.2000  2.25240E-07  3.27822E-07  3.12562E-07  7.56984E-09  1.21600E-08  3.32292E-07  5.34351E-07  5.57532E-07  8.62173E-07
 -106.4000  2.35851E-07  3.41689E-07  3.25587E-07  7.91974E-09  1.26926E-08  3.46200E-07  5.54708E-07  5.82050E-07  8.96397E-07
 -105.6000  2.47036E-07  3.56215E-07  3.39234E-07  8.28798E-09  1.32520E-08  3.60774E-07  5.75921E-07  6.07809E-07  9.32136E-07
 -104.8000  2.58830E-07  3.71434E-07  3.53535E-07  8.67566E-09  1.38396E-08  3.76050E-07  5.98032E-07  6.34880E-07  9.69466E-07
 -104.0000  2.71271E-07  3.87384E-07  3.68525E-07  9.08391E-09  1.44571E-08  3.92066E-07  6.21085E-07  6.63338E-07  1.00847E-06
 -103.2000  2.84400E-07  4.04107E-07  3.84244E-07  9.51397E-09  1.51061E-08  4.08864E-07  6.45126E-07  6.93264E-07  1.04923E-06
 -102.4000  2.98258E-07  4.21644E-07  4.00729E-07  9.96714E-09  1.57886E-08  4.26485E-07  6.70203E-07  7.24743E-07  1.09185E-06
 -101.6000  3.12895E-07  4.40042E-07  4.18025E-07  1.04449E-08  1.65065E-08  4.44977E-07  6.96367E-07  7.57872E-07  1.13641E-06
 -100.8000  3.28360E-07  4.59349E-07  4.36178E-07  1.09486E-08  1.72620E-08  4.64389E-07  7.23672E-07  7.92749E-07  1.18302E-06
 -100.0000  3.44705E-07  4.79617E-07  4.55237E-07  1.14800E-08  1.80572E-08  4.84774E-07  7.52177E-07  8.29479E-07  1.23179E-06
  -99.2000  3.61988E-07  5.00902E-07  4.75250E-07  1.20408E-08  1.88945E-08  5.06185E-07  7.81940E-07  8.68173E-07  1.28284E-06
  -98.4000  3.80271E-07  5.23261E-07  4.96274E-07  1.26327E-08  1.97764E-08  5.28683E-07  8.13026E-07  9.08954E-07  1.33629E-06
  -97.6000  3.99621E-07  5.46759E-07  5.18369E-07  1.32579E-08  2.07059E-08  5.52332E-07  8.45502E-07  9.51953E-07  1.39226E-06
  -96.8000  4.20109E-07  5.71461E-07  5.41595E-07  1.39183E-08  2.16856E-08  5.77199E-07  8.79441E-07  9.97309E-07  1.45090E-06
  -96.0000  4.41814E-07  5.97439E-07  5.66021E-07  1.46163E-08  2.27188E-08  6.03356E-07  9.14918E-07  1.04517E-06  1.51236E-06
  -95.2000  4.64811E-07  6.24769E-07  5.91713E-07  1.53541E-08  2.38087E-08  6.30876E-07  9.52012E-07  1.09569E-06  1.57678E-06
  -94.4000  4.89197E-07  6.53533E-07  6.18750E-07  1.61346E-08  2.49590E-08  6.59844E-07  9.90810E-07  1.14904E-06  1.64434E-06
  -93.6000  5.15066E-07  6.83819E-07  6.47214E-07  1.69604E-08  2.61735E-08  6.90348E-07  1.03140E-06  1.20541E-06  1.71522E-06
  -92.8000  5.42523E-07  7.15718E-07  6.77190E-07  1.78345E-08  2.74563E-08  7.22481E-07  1.07388E-06  1.26500E-06  1.78960E-06
  -92.0000  5.71675E-07  7.49332E-07  7.08768E-07  1.87602E-08  2.88118E-08  7.56340E-07  1.11836E-06  1.32801E-06  1.86769E-06
  -91.2000  6.02645E-07  7.84767E-07  7.42047E-07  1.97409E-08  3.02446E-08  7.92032E-07  1.16493E-06  1.39468E-06  1.94969E-06
  -90.4000  6.35566E-07  8.22138E-07  7.77135E-07  2.07803E-08  3.17599E-08  8.29675E-07  1.21371E-06  1.46524E-06  2.03585E-06
  -89.6000  6.70580E-07  8.61567E-07  8.14145E-07  2.18824E-08  3.33632E-08  8.69390E-07  1.26483E-06  1.53997E-06  2.12640E-06
  -88.8000  7.07841E-07  9.03187E-07  8.53197E-07  2.30517E-08  3.50604E-08  9.11309E-07  1.31841E-06  1.61915E-06  2.22160E-06
  -88.0000  7.47501E-07  9.47140E-07  8.94414E-07  2.42925E-08  3.68574E-08  9.55564E-07  1.37460E-06  1.70306E-06  2.32174E-06
  -87.2000  7.89756E-07  9.93576E-07  9.37943E-07  2.56100E-08  3.87614E-08  1.00231E-06  1.43353E-06  1.79207E-06  2.42711E-06
  -86.4000  8.34799E-07  1.04266E-06  9.83934E-07  2.70098E-08  4.07797E-08  1.05172E-06  1.49537E-06  1.88652E-06  2.53804E-06
  -85.6000  8.82842E-07  1.09457E-06  1.03254E-06  2.84975E-08  4.29201E-08  1.10396E-06  1.56029E-06  1.98680E-06  2.65486E-06
  -84.8000  9.34102E-07  1.14950E-06  1.08394E-06  3.00793E-08  4.51908E-08  1.15921E-06  1.62845E-06  2.09331E-06  2.77794E-06
  -84.0000  9.88843E-07  1.20764E-06  1.13831E-06  3.17622E-08  4.76014E-08  1.21768E-06  1.70004E-06  2.20652E-06  2.90768E-06
  -83.2000  1.04734E-06  1.26922E-06  1.19586E-06  3.35537E-08  5.01617E-08  1.27958E-06  1.77528E-06  2.32692E-06  3.04450E-06
  -82.4000  1.10989E-06  1.33448E-06  1.25680E-06  3.54617E-08  5.28824E-08  1.34515E-06  1.85438E-06  2.45504E-06  3.18886E-06
  -81.6000  1.17680E-06  1.40368E-06  1.32136E-06  3.74946E-08  5.57748E-08  1.41462E-06  1.93755E-06  2.59142E-06  3.34123E-06
  -80.8000  1.24844E-06  1.47708E-06  1.38978E-06  3.96620E-08  5.88517E-08  1.48829E-06  2.02506E-06  2.73673E-06  3.50215E-06
  -80.0000  1.32520E-06  1.55500E-06  1.46234E-06  4.19742E-08  6.21269E-08  1.56644E-06  2.11717E-06  2.89164E-06  3.67217E-06
  -79.2000  1.40751E-06  1.63776E-06  1.53932E-06  4.44423E-08  6.56149E-08  1.64938E-06  2.21415E-06  3.05689E-06  3.85191E-06
  -78.4000  1.49579E-06  1.72571E-06  1.62104E-06  4.70778E-08  6.93313E-08  1.73745E-06  2.31631E-06  3.23324E-06  4.04202E-06
  -77.6000  1.59060E-06  1.81924E-06  1.70783E-06  4.98943E-08  7.32939E-08  1.83102E-06  2.42397E-06  3.42162E-06  4.24321E-06
  -76.8000  1.69247E-06  1.91876E-06  1.80006E-06  5.29060E-08  7.75215E-08  1.93049E-06  2.53748E-06  3.62297E-06  4.45624E-06
