    Energy    <xanes>    
   7659.00  9.7717009E-05
   7659.50  9.8762323E-05
   7660.00  9.9828052E-05
   7660.50  1.0091480E-04
   7661.00  1.0202318E-04
   7661.50  1.0315386E-04
   7662.00  1.0430750E-04
   7662.50  1.0548482E-04
   7663.00  1.0668654E-04
   7663.50  1.0791343E-04
   7664.00  1.0916630E-04
   7664.50  1.1044596E-04
   7665.00  1.1175329E-04
   7665.50  1.1308919E-04
   7666.00  1.1445461E-04
   7666.50  1.1585054E-04
   7667.00  1.1727801E-04
   7667.50  1.1873810E-04
   7668.00  1.2023194E-04
   7668.50  1.2176072E-04
   7669.00  1.2332569E-04
   7669.50  1.2492813E-04
   7670.00  1.2656942E-04
   7670.50  1.2825099E-04
   7671.00  1.2997434E-04
   7671.50  1.3174106E-04
   7672.00  1.3355281E-04
   7672.50  1.3541133E-04
   7673.00  1.3731847E-04
   7673.50  1.3927618E-04
   7674.00  1.4128649E-04
   7674.50  1.4335157E-04
   7675.00  1.4547370E-04
   7675.50  1.4765529E-04
   7676.00  1.4989889E-04
   7676.50  1.5220720E-04
   7677.00  1.5458309E-04
   7677.50  1.5702958E-04
   7678.00  1.5954990E-04
   7678.50  1.6214746E-04
   7679.00  1.6482591E-04
   7679.50  1.6758912E-04
   7680.00  1.7044121E-04
   7680.50  1.7338659E-04
   7681.00  1.7642996E-04
   7681.50  1.7957635E-04
   7682.00  1.8283115E-04
   7682.50  1.8620011E-04
   7683.00  1.8968943E-04
   7683.50  1.9330576E-04
   7684.00  1.9705627E-04
   7684.50  2.0094866E-04
   7685.00  2.0499127E-04
   7685.50  2.0919309E-04
   7686.00  2.1356387E-04
   7686.50  2.1811417E-04
   7687.00  2.2285548E-04
   7687.50  2.2780029E-04
   7688.00  2.3296223E-04
   7688.50  2.3835620E-04
   7689.00  2.4399850E-04
   7689.50  2.4990704E-04
   7690.00  2.5610150E-04
   7690.50  2.6260359E-04
   7691.00  2.6943734E-04
   7691.50  2.7662934E-04
   7692.00  2.8420921E-04
   7692.50  2.9220995E-04
   7693.00  3.0066848E-04
   7693.50  3.0962628E-04
   7694.00  3.1913006E-04
   7694.50  3.2923269E-04
   7695.00  3.3999419E-04
   7695.50  3.5148307E-04
   7696.00  3.6377788E-04
   7696.50  3.7696909E-04
   7697.00  3.9116158E-04
   7697.50  4.0647754E-04
   7698.00  4.2306038E-04
   7698.50  4.4107949E-04
   7699.00  4.6073655E-04
   7699.50  4.8227369E-04
   7700.00  5.0598431E-04
   7700.50  5.3222762E-04
   7701.00  5.6144838E-04
   7701.50  5.9420438E-04
   7702.00  6.3120521E-04
   7702.50  6.7336832E-04
   7703.00  7.2190207E-04
   7703.50  7.7843225E-04
   7704.00  8.4520125E-04
   7704.50  9.2539345E-04
   7705.00  1.0236913E-03
   7705.50  1.1472761E-03
   7706.00  1.3077490E-03
   7706.50  1.5251106E-03
   7707.00  1.8368234E-03
   7707.10  1.9161528E-03
   7707.20  2.0030106E-03
   7707.30  2.0984987E-03
   7707.40  2.2039329E-03
   7707.50  2.3208924E-03
   7707.60  2.4512818E-03
   7707.70  2.5974078E-03
   7707.80  2.7620722E-03
   7707.90  2.9486817E-03
   7708.00  3.1613700E-03
   7708.10  3.4051164E-03
   7708.20  3.6858246E-03
   7708.30  4.0102889E-03
   7708.40  4.3859048E-03
   7708.50  4.8199040E-03
   7708.60  5.3178321E-03
   7708.70  5.8811057E-03
   7708.80  6.5040151E-03
   7708.90  7.1715410E-03
   7709.00  7.8600801E-03
   7709.10  8.5420460E-03
   7709.20  9.1925113E-03
   7709.30  9.7945480E-03
   7709.40  1.0340495E-02
   7709.50  1.0830073E-02
   7709.60  1.1267463E-02
   7709.70  1.1658820E-02
   7709.80  1.2010691E-02
   7709.90  1.2329187E-02
   7710.00  1.2619653E-02
   7710.10  1.2886606E-02
   7710.20  1.3133792E-02
   7710.30  1.3364292E-02
   7710.40  1.3580629E-02
   7710.50  1.3784872E-02
   7710.60  1.3978720E-02
   7710.70  1.4163572E-02
   7710.80  1.4340586E-02
   7710.90  1.4510727E-02
   7711.00  1.4674799E-02
   7711.10  1.4833480E-02
   7711.20  1.4987341E-02
   7711.30  1.5136867E-02
   7711.40  1.5282473E-02
   7711.50  1.5424514E-02
   7711.60  1.5563296E-02
   7711.70  1.5699083E-02
   7711.80  1.5832106E-02
   7711.90  1.5962565E-02
   7712.00  1.6090636E-02
   7712.10  1.6216473E-02
   7712.20  1.6340213E-02
   7712.30  1.6461975E-02
   7712.40  1.6581867E-02
   7712.50  1.6699984E-02
   7712.60  1.6816412E-02
   7712.70  1.6931226E-02
   7712.80  1.7044496E-02
   7712.90  1.7156284E-02
   7713.00  1.7266644E-02
   7713.10  1.7375629E-02
   7713.20  1.7483284E-02
   7713.30  1.7589652E-02
   7713.40  1.7694770E-02
   7713.50  1.7798674E-02
   7713.60  1.7901397E-02
   7713.70  1.8002967E-02
   7713.80  1.8103414E-02
   7713.90  1.8202761E-02
   7714.00  1.8301033E-02
   7714.10  1.8398253E-02
   7714.20  1.8494439E-02
   7714.30  1.8589612E-02
   7714.40  1.8683790E-02
   7714.50  1.8776989E-02
   7714.60  1.8869226E-02
   7714.70  1.8960515E-02
   7714.80  1.9050871E-02
   7714.90  1.9140308E-02
   7715.00  1.9228838E-02
   7715.10  1.9316475E-02
   7715.20  1.9403229E-02
   7715.30  1.9489113E-02
   7715.40  1.9574138E-02
   7715.50  1.9658313E-02
   7715.60  1.9741648E-02
   7715.70  1.9824154E-02
   7715.80  1.9905839E-02
   7715.90  1.9986711E-02
   7716.00  2.0066779E-02
   7716.10  2.0146049E-02
   7716.20  2.0224529E-02
   7716.30  2.0302225E-02
   7716.40  2.0379143E-02
   7716.50  2.0455290E-02
   7716.60  2.0530672E-02
   7716.70  2.0605295E-02
   7716.80  2.0679164E-02
   7716.90  2.0752286E-02
   7717.00  2.0824665E-02
   7717.10  2.0896307E-02
   7717.20  2.0967218E-02
   7717.30  2.1037402E-02
   7717.40  2.1106866E-02
   7717.50  2.1175613E-02
   7717.60  2.1243649E-02
   7717.70  2.1310979E-02
   7717.80  2.1377608E-02
   7717.90  2.1443541E-02
   7718.00  2.1508783E-02
   7718.10  2.1573341E-02
   7718.20  2.1637220E-02
   7718.30  2.1700429E-02
   7718.40  2.1762976E-02
   7718.50  2.1824870E-02
   7718.60  2.1886122E-02
   7718.70  2.1946742E-02
   7718.80  2.2006742E-02
   7718.90  2.2066129E-02
   7719.00  2.2124911E-02
   7719.50  2.2409826E-02
   7720.00  2.2679789E-02
   7720.50  2.2935128E-02
   7721.00  2.3176404E-02
   7721.50  2.3404194E-02
   7722.00  2.3619043E-02
   7722.50  2.3821467E-02
   7723.00  2.4011981E-02
   7723.50  2.4191138E-02
   7724.00  2.4359546E-02
   7724.50  2.4517850E-02
   7725.00  2.4666681E-02
   7725.50  2.4806633E-02
   7726.00  2.4938267E-02
   7726.50  2.5062113E-02
   7727.00  2.5178677E-02
   7727.50  2.5288446E-02
   7728.00  2.5391884E-02
   7728.50  2.5489436E-02
   7729.00  2.5581523E-02
   7729.50  2.5668546E-02
   7730.00  2.5750879E-02
   7730.50  2.5828874E-02
   7731.00  2.5902861E-02
   7731.50  2.5973152E-02
   7732.00  2.6040038E-02
   7732.50  2.6103795E-02
   7733.00  2.6164677E-02
   7733.50  2.6222919E-02
   7734.00  2.6278733E-02
   7734.50  2.6332309E-02
   7735.00  2.6383814E-02
   7735.50  2.6433395E-02
   7736.00  2.6481180E-02
   7736.50  2.6527280E-02
   7737.00  2.6571793E-02
   7737.50  2.6614805E-02
   7738.00  2.6656388E-02
   7738.50  2.6696610E-02
   7739.00  2.6735530E-02
   7739.50  2.6773199E-02
   7740.00  2.6809667E-02
   7740.50  2.6844979E-02
   7741.00  2.6879175E-02
   7741.50  2.6912295E-02
   7742.00  2.6944374E-02
   7742.50  2.6975448E-02
   7743.00  2.7005547E-02
   7743.50  2.7034700E-02
   7744.00  2.7062935E-02
   7744.50  2.7090274E-02
   7745.00  2.7116741E-02
   7745.50  2.7142356E-02
   7746.00  2.7167137E-02
   7746.50  2.7191102E-02
   7747.00  2.7214266E-02
   7747.50  2.7236644E-02
   7748.00  2.7258251E-02
   7748.50  2.7279100E-02
   7749.00  2.7299204E-02
   7749.50  2.7318577E-02
   7750.00  2.7337232E-02
   7750.50  2.7355184E-02
   7751.00  2.7372450E-02
   7751.50  2.7389050E-02
   7752.00  2.7405006E-02
   7752.50  2.7420343E-02
   7753.00  2.7435089E-02
   7753.50  2.7449277E-02
   7754.00  2.7462938E-02
   7754.50  2.7476106E-02
   7755.00  2.7488814E-02
   7755.50  2.7501094E-02
   7756.00  2.7512975E-02
   7756.50  2.7524484E-02
   7757.00  2.7535645E-02
   7757.50  2.7546480E-02
   7758.00  2.7557007E-02
   7758.50  2.7567240E-02
   7759.00  2.7577195E-02
   7759.50  2.7586881E-02
   7760.00  2.7596308E-02
   7760.50  2.7605483E-02
   7761.00  2.7614412E-02
   7761.50  2.7623099E-02
   7762.00  2.7631549E-02
   7762.50  2.7639764E-02
   7763.00  2.7647749E-02
   7763.50  2.7655507E-02
   7764.00  2.7663042E-02
   7764.50  2.7670359E-02
   7765.00  2.7677465E-02
   7765.50  2.7684369E-02
   7766.00  2.7691079E-02
   7766.50  2.7697606E-02
   7767.00  2.7703962E-02
   7767.50  2.7710159E-02
   7768.00  2.7716209E-02
   7768.50  2.7722125E-02
   7769.00  2.7727918E-02
   7769.50  2.7733601E-02
   7770.00  2.7739184E-02
   7770.50  2.7744679E-02
   7771.00  2.7750093E-02
   7771.50  2.7755437E-02
   7772.00  2.7760719E-02
   7772.50  2.7765945E-02
   7773.00  2.7771123E-02
   7773.50  2.7776259E-02
   7774.00  2.7781360E-02
   7774.50  2.7786430E-02
   7775.00  2.7791476E-02
   7775.50  2.7796501E-02
   7776.00  2.7801510E-02
   7776.50  2.7806507E-02
   7777.00  2.7811497E-02
   7777.50  2.7816483E-02
   7778.00  2.7821467E-02
   7778.50  2.7826452E-02
   7779.00  2.7831440E-02
   7779.50  2.7836432E-02
   7780.00  2.7841429E-02
   7780.50  2.7846431E-02
   7781.00  2.7851436E-02
   7781.50  2.7856443E-02
   7782.00  2.7861451E-02
   7782.50  2.7866458E-02
   7783.00  2.7871460E-02
   7783.50  2.7876455E-02
   7784.00  2.7881441E-02
   7784.50  2.7886414E-02
   7785.00  2.7891371E-02
   7785.50  2.7896309E-02
   7786.00  2.7901226E-02
   7786.50  2.7906119E-02
   7787.00  2.7910986E-02
   7787.50  2.7915823E-02
   7788.00  2.7920629E-02
   7788.50  2.7925401E-02
   7789.00  2.7930139E-02
   7789.50  2.7934839E-02
   7790.00  2.7939502E-02
   7790.50  2.7944124E-02
   7791.00  2.7948706E-02
   7791.50  2.7953246E-02
   7792.00  2.7957744E-02
   7792.50  2.7962198E-02
   7793.00  2.7966609E-02
   7793.50  2.7970976E-02
   7794.00  2.7975300E-02
   7794.50  2.7979579E-02
   7795.00  2.7983815E-02
   7795.50  2.7988008E-02
   7796.00  2.7992157E-02
   7796.50  2.7996262E-02
   7797.00  2.8000324E-02
   7797.50  2.8004343E-02
   7798.00  2.8008318E-02
   7798.50  2.8012249E-02
   7799.00  2.8016137E-02
   7799.50  2.8019979E-02
   7800.00  2.8023777E-02
   7800.50  2.8027529E-02
   7801.00  2.8031234E-02
   7801.50  2.8034893E-02
   7802.00  2.8038504E-02
   7802.50  2.8042066E-02
   7803.00  2.8045578E-02
   7803.50  2.8049040E-02
   7804.00  2.8052450E-02
   7804.50  2.8055808E-02
   7805.00  2.8059113E-02
   7805.50  2.8062363E-02
   7806.00  2.8065558E-02
   7806.50  2.8068697E-02
   7807.00  2.8071780E-02
   7807.50  2.8074805E-02
   7808.00  2.8077773E-02
   7808.50  2.8080684E-02
   7809.00  2.8083538E-02
